timestamp_ms,ecg_value
0,5461.290322580645
4,5361.290322580644
24,5377.41935483871
44,5480.645161290322
65,5693.548387096774
84,5783.870967741935
104,5625.806451612903
124,5719.354838709677
144,5761.290322580645
165,5545.1612903225805
184,5700.0
205,5700.0
225,5796.774193548387
245,5629.032258064516
265,5580.645161290322
284,6135.4838709677415
304,6245.1612903225805
324,6351.612903225807
344,6080.645161290322
364,5725.806451612903
384,5716.129032258064
404,5648.387096774193
424,5916.129032258064
444,12135.48387096774
465,5077.419354838709
484,5212.903225806451
504,6141.935483870968
524,6380.645161290323
545,6461.290322580645
565,6548.387096774193
584,7035.483870967741
604,7238.709677419353
625,7570.967741935484
644,7738.709677419354
665,7532.258064516129
684,7035.483870967741
704,6177.419354838709
724,5635.483870967742
744,5383.870967741936
765,5503.225806451613
784,5490.322580645161
804,5596.774193548387
824,5680.645161290323
844,5529.032258064516
865,5732.258064516129
884,5641.935483870968
904,5735.4838709677415
924,5432.25806451613
944,5570.967741935484
964,5638.709677419355
984,5658.064516129032
1004,5803.225806451613
1024,6238.709677419354
1044,6103.225806451613
1064,5629.032258064516
1084,5561.290322580646
1104,5606.451612903225
1124,5080.645161290322
1144,8203.225806451614
1165,8119.354838709677
1184,4180.645161290323
1204,5835.4838709677415
1224,6177.419354838709
1244,6403.225806451613
1264,6519.354838709678
1284,6783.870967741935
1304,7029.032258064515
1324,7558.064516129033
1344,7793.548387096775
1364,7690.322580645161
1384,7245.16129032258
1404,6574.193548387097
1424,5851.612903225807
1444,5625.806451612903
1464,5325.806451612903
1484,5506.451612903226
1504,5593.548387096775
1524,5629.032258064516
1544,5790.322580645161
1564,5725.806451612903
1584,5751.612903225806
1604,5661.290322580645
1624,5648.387096774193
1645,5758.064516129032
1664,5664.516129032258
1685,5648.387096774193
1704,5616.129032258064
1725,5954.838709677419
1744,6300.0
1764,6229.032258064516
1784,5990.322580645161
1804,5777.419354838709
1824,5538.709677419355
1844,5425.806451612903
1864,5751.612903225806
1885,12667.741935483871
1904,4661.290322580645
1924,5219.354838709677
1945,6196.774193548387
1965,6290.322580645161
1984,6396.774193548386
2004,6658.064516129031
2024,6999.999999999999
2044,7216.129032258063
2064,7461.290322580646
2084,7780.645161290322
2104,7741.935483870968
2124,7158.064516129031
2144,6300.0
2165,5461.290322580645
2184,5322.58064516129
2204,5345.1612903225805
2225,5451.612903225806
2244,5625.806451612903
2264,5670.967741935484
2284,5729.032258064516
2304,5574.193548387097
2324,5609.677419354838
2344,5822.58064516129
2364,5512.903225806452
2384,5483.870967741935
2404,5677.419354838709
2424,5551.612903225807
2444,5558.064516129032
2464,6048.387096774193
2484,6216.129032258064
2504,6061.290322580645
2524,5832.258064516129
2544,5738.709677419354
2564,5625.806451612903
2584,5606.451612903225
2605,5712.903225806452
2625,12267.74193548387
2645,4867.74193548387
2664,5161.290322580645
2684,6029.032258064515
2704,6248.387096774193
2724,6293.548387096775
2744,6809.677419354838
2764,6658.064516129031
2784,7077.419354838708
2804,7506.451612903226
2824,7648.387096774193
2844,7606.451612903225
2865,7103.225806451613
2884,6054.83870967742
2904,5577.419354838709
2924,5151.612903225806
2944,5161.290322580645
2964,5309.677419354838
2984,5635.483870967742
3004,5438.709677419354
3024,5422.580645161291
3044,5516.129032258064
3064,5467.741935483871
3084,5467.741935483871
3104,5403.225806451613
3124,5429.032258064516
3144,5419.354838709677
3164,5387.096774193548
3184,5487.096774193548
3205,5832.258064516129
3224,6151.612903225806
3244,6112.903225806451
3264,5870.967741935483
3284,5629.032258064516
3304,5493.548387096774
3325,5300.0
3344,5999.999999999999
3365,11990.32258064516
3384,4199.999999999999
3405,5519.354838709678
3425,5935.4838709677415
3444,6319.354838709677
3464,6277.419354838709
3484,6554.83870967742
3504,6809.677419354838
3524,7112.903225806451
3544,7593.548387096775
3565,7545.16129032258
3584,7487.096774193548
3604,6716.129032258064
3624,5832.258064516129
3644,5490.322580645161
3664,5241.935483870967
3684,5125.806451612903
3704,5387.096774193548
3725,5335.4838709677415
3744,5435.483870967742
3765,5396.774193548386
3784,5458.064516129032
3804,5461.290322580645
3824,5367.741935483871
3844,5254.838709677419
3864,5496.774193548387
3884,5416.129032258064
3904,5625.806451612903
3924,5841.935483870968
3945,6141.935483870968
3965,5806.451612903225
3984,5416.129032258064
4004,5300.0
4025,5464.5161290322585
4045,5306.451612903225
4065,10470.967741935485
4085,5709.677419354838
4104,4100.0
4124,6019.354838709677
4145,5938.709677419354
4165,6158.064516129031
4184,6406.451612903225
4204,6761.290322580645
4225,6999.999999999999
4245,7358.06451612903
4265,7406.451612903224
4284,7390.32258064516
4305,7174.193548387096
4324,6009.677419354838
4345,5558.064516129032
4365,5254.838709677419
4384,5177.419354838709
4405,5338.709677419354
4425,5567.74193548387
4445,5567.74193548387
4465,5587.096774193548
4484,5609.677419354838
4505,5577.419354838709
4524,5625.806451612903
4545,5493.548387096774
4565,5677.419354838709
4584,5629.032258064516
4604,5938.709677419354
4624,6264.5161290322585
4645,6035.4838709677415
4665,5929.032258064516
4684,5493.548387096774
4704,5545.1612903225805
4724,4903.225806451613
4745,7793.548387096775
4764,8845.16129032258
4784,3751.612903225807
4804,6070.967741935483
4824,6141.935483870968
4845,6345.1612903225805
4864,6477.41935483871
4884,6712.903225806451
4904,7003.225806451612
4925,7338.709677419354
4945,7641.935483870968
4966,7690.322580645161
4984,7416.129032258063
5005,6538.709677419354
5024,5709.677419354838
5044,5400.0
5065,5522.58064516129
5084,5322.58064516129
5104,5364.516129032258
5125,5712.903225806452
5145,5683.870967741936
5164,5609.677419354838
5184,5683.870967741936
5204,5648.387096774193
5225,5545.1612903225805
5245,5477.41935483871
5265,5622.58064516129
5284,5667.741935483871
5305,5619.354838709677
5324,5783.870967741935
5345,6377.419354838709
5365,6193.548387096774
5384,5854.838709677419
5404,5551.612903225807
5424,5616.129032258064
5445,5461.290322580645
5465,6416.129032258064
5485,11609.67741935484
5504,4070.967741935483
5524,5812.903225806451
5545,6106.4516129032245
5565,6312.903225806451
5584,6345.1612903225805
5604,6629.032258064516
5624,6967.74193548387
5645,7312.903225806451
5664,7541.935483870968
5684,7683.870967741936
5704,7380.645161290322
5724,6761.290322580645
5745,6003.225806451613
5764,5419.354838709677
5784,5361.290322580644
5805,5270.967741935484
5824,5470.967741935484
5844,5574.193548387097
5865,5722.580645161291
5885,5596.774193548387
5904,5787.096774193548
5924,5619.354838709677
5945,5374.193548387097
5965,5570.967741935484
5984,5451.612903225806
6005,5567.74193548387
6024,5590.322580645161
6045,6054.83870967742
6065,6151.612903225806
6085,6132.258064516129
6105,5783.870967741935
6124,5509.677419354839
6145,5522.58064516129
6165,5158.064516129031
6185,6816.129032258064
6204,10054.83870967742
6225,3861.290322580645
6245,5958.064516129032
6265,5987.096774193547
6284,6200.0
6304,6406.451612903225
6324,6741.935483870967
6345,6861.290322580644
6364,7183.870967741935
6384,7493.548387096775
6405,7541.935483870968
6424,7377.419354838708
6445,6454.83870967742
6464,5829.032258064516
6484,5577.419354838709
6504,5203.225806451613
6524,5370.967741935484
6544,5419.354838709677
6564,5506.451612903226
6585,5593.548387096775
6604,5706.451612903225
6624,5719.354838709677
6645,5580.645161290322
6665,5483.870967741935
6684,5564.516129032258
6705,5793.548387096774
6724,5658.064516129032
6744,5693.548387096774
6765,5738.709677419354
6784,6141.935483870968
6804,6261.290322580646
6824,6132.258064516129
6844,5883.870967741936
6864,5803.225806451613
6884,5574.193548387097
6904,5422.580645161291
6924,9616.129032258064
6945,6761.290322580645
6964,4383.870967741936
6984,6309.677419354839
7004,6254.83870967742
7025,6399.999999999999
7045,6770.967741935484
7064,6848.387096774193
7084,7170.967741935483
7104,7451.612903225807
7124,7619.354838709677
7145,7696.774193548387
7165,7325.806451612902
7184,6506.451612903225
7204,5829.032258064516
7225,5419.354838709677
7245,5429.032258064516
7264,5374.193548387097
7285,5522.58064516129
7305,5712.903225806452
7324,5532.258064516129
7344,5709.677419354838
7365,5696.774193548386
7384,5751.612903225806
7404,5616.129032258064
7424,5535.4838709677415
7444,5422.580645161291
7464,5687.096774193548
7485,6058.064516129032
7505,6241.935483870968
7524,6222.580645161291
7545,5858.064516129031
7565,5622.58064516129
7585,5951.612903225806
7605,5403.225806451613
7624,5780.645161290322
7645,12232.258064516129
7664,4835.4838709677415
7684,5229.032258064516
7705,6183.870967741936
7725,6432.258064516129
7745,6648.387096774192
7765,6587.096774193548
7785,6935.4838709677415
7805,7425.806451612903
7824,7593.548387096775
7845,7858.064516129032
7865,7654.8387096774195
7885,7029.032258064515
7905,6348.387096774194
7925,5758.064516129032
7945,5461.290322580645
7965,5412.903225806452
7984,5522.58064516129
8004,5709.677419354838
8025,5874.193548387097
8045,5741.935483870967
8064,5764.5161290322585
8085,5877.419354838709
8105,5680.645161290323
8125,5719.354838709677
8145,5741.935483870967
8165,5887.096774193548
8185,5848.387096774193
8205,5764.5161290322585
8224,5880.645161290322
8245,6216.129032258064
8265,6603.225806451613
8285,6274.193548387097
8305,6016.129032258064
8324,5761.290322580645
8345,5758.064516129032
8365,5435.483870967742
8384,8609.677419354839
8404,8406.451612903225
8424,4183.870967741936
8444,6190.322580645161
8464,6403.225806451613
8484,6564.516129032258
8504,6667.74193548387
8524,6977.419354838709
8545,7222.58064516129
8564,7609.677419354838
8584,7658.064516129032
8604,7861.290322580645
8625,7538.709677419355
8645,6461.290322580645
8664,5970.967741935484
8684,5335.4838709677415
8704,5338.709677419354
8724,5312.903225806451
8744,5625.806451612903
8764,5567.74193548387
8785,5525.806451612903
8804,5745.1612903225805
8824,5667.741935483871
8845,5506.451612903226
8865,5419.354838709677
8884,5538.709677419355
8905,5538.709677419355
8925,5667.741935483871
8945,5474.1935483870975
8965,5603.225806451614
8984,5793.548387096774
9005,6019.354838709677
9024,6193.548387096774
9045,5974.193548387097
9064,5438.709677419354
9085,5493.548387096774
9104,5554.83870967742
9124,5577.419354838709
9144,11112.903225806453
9164,5316.129032258064
9185,4712.903225806452
9205,6141.935483870968
9225,6138.709677419354
9244,6241.935483870968
9264,6590.322580645161
9284,6816.129032258064
9304,6990.32258064516
9324,7258.064516129031
9345,7719.354838709678
9364,7629.032258064516
9384,7209.677419354838
9404,6006.451612903225
9425,5554.83870967742
9445,5174.193548387097
9465,5264.516129032258
9485,5054.83870967742
9504,5435.483870967742
9525,5474.1935483870975
9545,5380.645161290323
9564,5367.741935483871
9585,5519.354838709678
9604,5429.032258064516
9624,5487.096774193548
9645,5554.83870967742
9664,5419.354838709677
9684,5403.225806451613
9705,5609.677419354838
9725,5529.032258064516
9744,5545.1612903225805
9764,5745.1612903225805
9784,6090.322580645161
9805,6074.193548387096
9825,5880.645161290322
9845,5661.290322580645
9864,5435.483870967742
9885,5590.322580645161
9904,5435.483870967742
9925,10270.967741935485
9945,6080.645161290322
9964,4377.419354838709
9985,6161.290322580644
10005,6235.4838709677415
0,7661.290322580645
184,7670.967741935484
230,7535.483870967742
278,6903.225806451612
318,6183.870967741936
354,5603.225806451614
390,5419.354838709677
428,5270.967741935484
464,5461.290322580645
508,5551.612903225807
545,5677.419354838709
582,5587.096774193548
620,5806.451612903225
656,5570.967741935484
694,5558.064516129032
734,5493.548387096774
774,5590.322580645161
816,5729.032258064516
873,5635.483870967742
923,5580.645161290322
964,5987.096774193547
1015,6296.774193548387
1018,6112.903225806451
1021,5932.258064516129
1065,5661.290322580645
1112,5725.806451612903
1115,5296.774193548386
1117,7093.548387096774
1162,9841.935483870968
1203,4087.096774193548
1206,5832.258064516129
1249,6190.322580645161
1293,6183.870967741936
1336,6480.645161290322
1379,6603.225806451613
1421,6909.677419354838
1465,7277.419354838708
1467,7577.419354838709
1470,7554.8387096774195
1512,7380.645161290322
1553,6596.774193548387
1592,5854.838709677419
1595,5316.129032258064
1634,5225.806451612903
1673,5293.548387096774
1713,5322.58064516129
1715,5419.354838709677
1757,5577.419354838709
1798,5596.774193548387
1843,5567.74193548387
1887,5529.032258064516
1928,5367.741935483871
1967,5370.967741935484
2007,5400.0
2048,5396.774193548386
2093,5541.935483870968
2136,5832.258064516129
2177,6164.516129032258
2218,5854.838709677419
2261,5729.032258064516
2303,5477.41935483871
2342,5522.58064516129
2382,5196.774193548386
2422,6458.064516129032
2461,10374.193548387097
2501,4209.677419354838
2539,5567.74193548387
2578,6106.4516129032245
2617,6190.322580645161
2656,6351.612903225807
2697,6577.419354838709
2737,6893.548387096774
2781,7093.548387096774
2821,7380.645161290322
2824,7554.8387096774195
2867,7383.870967741935
2907,6767.741935483871
2949,5819.354838709677
2989,5532.258064516129
3031,5458.064516129032
3035,5512.903225806452
3075,5522.58064516129
3116,5567.74193548387
3157,5935.4838709677415
3200,5796.774193548387
3243,5770.967741935484
3281,5729.032258064516
3320,5780.645161290322
3359,5832.258064516129
3399,6138.709677419354
3442,6277.419354838709
3482,6487.096774193548
3486,6109.677419354838
3528,5841.935483870968
3567,5729.032258064516
3607,5719.354838709677
3648,5709.677419354838
3689,11003.225806451614
3731,6058.064516129032
3771,4583.870967741936
3811,6238.709677419354
3853,6441.935483870967
3898,6564.516129032258
3902,6777.419354838708
3947,6958.064516129031
3989,7293.548387096773
4030,7593.548387096775
4072,7758.064516129032
4075,7619.354838709677
4118,7229.032258064515
4161,6264.5161290322585
4205,5751.612903225806
4245,5525.806451612903
4249,5525.806451612903
4294,5516.129032258064
4334,5619.354838709677
4376,5761.290322580645
4378,5780.645161290322
4423,5687.096774193548
4464,5825.806451612903
4505,5719.354838709677
4547,5741.935483870967
4589,5677.419354838709
4631,5716.129032258064
4674,5745.1612903225805
4713,6038.709677419354
4751,6351.612903225807
4791,6135.4838709677415
4828,5841.935483870968
4869,5525.806451612903
4912,5570.967741935484
4993,5154.838709677419
4994,7022.580645161289
4996,10367.741935483871
4997,3767.741935483871
5000,5767.741935483871
5007,6174.193548387097
5012,6235.4838709677415
5014,6474.193548387097
5015,6693.548387096774
5023,6964.516129032258
5025,7322.580645161289
5027,7545.16129032258
5028,7690.322580645161
5030,7380.645161290322
5032,6522.58064516129
5035,5812.903225806451
5037,5429.032258064516
5040,5206.451612903225
5042,5312.903225806451
5044,5403.225806451613
5045,5522.58064516129
5047,5696.774193548386
5048,5625.806451612903
5050,5629.032258064516
5052,5654.838709677419
5053,5625.806451612903
5055,5593.548387096775
5057,5522.58064516129
5058,5609.677419354838
5060,5625.806451612903
5061,6058.064516129032
5063,6280.645161290322
5065,5977.419354838709
5066,5622.58064516129
5068,5538.709677419355
5070,5509.677419354839
5072,5183.870967741936
5074,8106.451612903224
5075,8480.645161290322
5077,3867.741935483871
5078,6038.709677419354
5080,6161.290322580644
5082,6309.677419354839
5083,6367.74193548387
5085,6841.935483870967
5087,6974.193548387097
5089,7383.870967741935
5090,7587.096774193548
5092,7583.870967741936
5093,7380.645161290322
5095,6461.290322580645
5097,5745.1612903225805
5098,5429.032258064516
5100,5264.516129032258
5102,5316.129032258064
5104,5461.290322580645
5107,5522.58064516129
5109,5612.903225806451
5111,5641.935483870968
5112,5641.935483870968
5113,5580.645161290322
5115,5583.870967741936
5116,5493.548387096774
5118,5593.548387096775
5121,5622.58064516129
5123,5700.0
5125,5564.516129032258
5127,5945.16129032258
5128,6245.1612903225805
5130,6287.096774193548
5132,5935.4838709677415
5136,5625.806451612903
5141,5625.806451612903
5143,5635.483870967742
5145,5706.451612903225
5147,12232.258064516129
5148,5074.193548387097
5150,5058.064516129032
5151,6245.1612903225805
5154,6141.935483870968
5155,6429.032258064516
5157,6680.645161290322
5159,6938.709677419354
5161,7129.032258064515
5162,7390.32258064516
5164,7629.032258064516
5166,7541.935483870968
5169,6967.74193548387
5171,6245.1612903225805
5174,5512.903225806452
5175,5335.4838709677415
5177,5396.774193548386
5178,5403.225806451613
5180,5429.032258064516
5182,5512.903225806452
5184,5674.193548387097
5186,5574.193548387097
5188,5629.032258064516
5190,5532.258064516129
5192,5400.0
5193,5606.451612903225
5195,5493.548387096774
5196,5487.096774193548
5198,5574.193548387097
5199,5625.806451612903
5202,5829.032258064516
5205,6141.935483870968
5207,5912.903225806451
5209,5796.774193548387
5211,5570.967741935484
5212,5425.806451612903
5214,5109.677419354838
5216,7158.064516129031
5218,9687.09677419355
5219,3938.709677419354
5221,5735.4838709677415
5222,6138.709677419354
5224,6245.1612903225805
5225,6458.064516129032
5227,6658.064516129031
5229,6948.387096774192
5230,7164.516129032257
5232,7461.290322580646
5233,7519.354838709678
5235,7345.16129032258
5237,6764.516129032258
5238,5841.935483870968
5240,5487.096774193548
5241,5335.4838709677415
5243,5335.4838709677415
5244,5516.129032258064
5246,5464.5161290322585
5248,5590.322580645161
5250,5629.032258064516
5252,5554.83870967742
5253,5670.967741935484
5255,5551.612903225807
5256,5545.1612903225805
5257,5593.548387096775
5272,5435.483870967742
5292,5709.677419354838
5312,5616.129032258064
5332,5848.387096774193
5352,6119.354838709677
5372,6196.774193548387
5392,5899.999999999999
5412,5661.290322580645
5432,5593.548387096775
5452,5374.193548387097
5472,5729.032258064516
5492,11932.258064516129
5512,5109.677419354838
5532,4922.58064516129
5552,6245.1612903225805
5572,6158.064516129031
5592,6545.1612903225805
5612,6500.0
5632,6948.387096774192
5652,7219.354838709677
5672,7516.129032258065
5692,7777.419354838709
5712,7306.451612903225
5732,6899.999999999999
5752,6351.612903225807
5772,5506.451612903226
5792,5361.290322580644
5812,5319.354838709676
5832,5519.354838709678
5852,5500.0
5872,5645.1612903225805
5892,5654.838709677419
5912,5580.645161290322
5932,5674.193548387097
5952,5622.58064516129
5972,5583.870967741936
5992,5577.419354838709
6012,5441.935483870968
6032,5696.774193548386
6052,5574.193548387097
6072,5641.935483870968
6092,5993.548387096774
6112,6212.903225806452
6132,6235.4838709677415
6153,5935.4838709677415
6172,5674.193548387097
6192,5567.74193548387
6212,5525.806451612903
6232,6222.580645161291
6252,12500.0
6272,4241.935483870967
6292,5577.419354838709
6312,6148.387096774192
6332,6329.032258064516
6352,6403.225806451613
6372,6761.290322580645
6392,6964.516129032258
6412,7338.709677419354
6432,7603.225806451614
6452,7861.290322580645
6472,7635.483870967742
6492,6958.064516129031
6512,6138.709677419354
6532,5567.74193548387
6552,5364.516129032258
6572,5322.58064516129
6592,5416.129032258064
6612,5567.74193548387
6632,5658.064516129032
6652,5687.096774193548
6672,5538.709677419355
6692,5525.806451612903
6712,5583.870967741936
6732,5625.806451612903
6752,5567.74193548387
6772,5693.548387096774
6792,5625.806451612903
6812,5522.58064516129
6832,6006.451612903225
6852,6248.387096774193
6872,5954.838709677419
6892,5899.999999999999
6912,5625.806451612903
6932,5680.645161290323
6952,5222.58064516129
6972,7170.967741935483
6992,9506.451612903224
7012,3974.1935483870966
7032,5806.451612903225
7052,6038.709677419354
7072,6348.387096774194
7092,6409.677419354838
7112,6596.774193548387
7132,7070.967741935483
7152,7319.354838709676
7172,7500.0
7192,7712.903225806452
7212,7470.967741935485
7232,6761.290322580645
7252,5970.967741935484
7272,5393.548387096775
7292,5280.645161290322
7312,5212.903225806451
7332,5438.709677419354
7352,5570.967741935484
7372,5654.838709677419
7392,5758.064516129032
7412,5654.838709677419
7432,5525.806451612903
7452,5493.548387096774
7472,5567.74193548387
7492,5648.387096774193
7512,5490.322580645161
7532,5729.032258064516
7552,6032.258064516128
7572,6238.709677419354
7592,6019.354838709677
7612,5570.967741935484
0,6235.4838709677415
20,6264.5161290322585
40,5964.516129032258
60,5625.806451612903
80,5525.806451612903
100,5541.935483870968
120,5419.354838709677
140,10993.548387096776
160,5506.451612903226
180,4622.580645161291
200,6138.709677419354
220,6170.967741935483
240,6332.258064516129
260,6483.870967741935
280,6741.935483870967
300,7122.58064516129
320,7274.193548387096
340,7587.096774193548
360,7390.32258064516
380,6999.999999999999
400,6109.677419354838
420,5648.387096774193
440,5258.064516129032
460,5335.4838709677415
480,5412.903225806452
500,5416.129032258064
520,5522.58064516129
540,5700.0
560,5632.258064516129
580,5570.967741935484
600,5441.935483870968
620,5451.612903225806
640,5448.387096774193
660,5616.129032258064
680,5893.548387096775
700,6196.774193548387
720,6016.129032258064
740,5835.4838709677415
760,5309.677419354838
780,5464.5161290322585
800,5109.677419354838
820,6509.677419354839
840,11177.41935483871
860,3800.000000000001
880,5800.0
900,6112.903225806451
920,6106.4516129032245
940,6403.225806451613
960,6590.322580645161
980,6980.645161290321
1000,7225.8064516129025
1020,7580.645161290323
1040,7619.354838709677
1060,7380.645161290322
1080,6661.290322580645
1100,6035.4838709677415
1120,5435.483870967742
1140,5274.193548387096
1160,5235.4838709677415
1180,5390.322580645162
1200,5554.83870967742
1220,5729.032258064516
1240,5670.967741935484
1260,5580.645161290322
1280,5593.548387096775
1300,5538.709677419355
1320,5438.709677419354
1340,5529.032258064516
1360,5609.677419354838
1380,5622.58064516129
1400,6038.709677419354
1420,6287.096774193548
1440,5935.4838709677415
1460,5761.290322580645
1480,5522.58064516129
1500,5506.451612903226
1520,5222.58064516129
1540,7593.548387096775
1560,8912.90322580645
1580,3922.58064516129
1600,5935.4838709677415
1620,6180.645161290322
1640,6332.258064516129
1660,6458.064516129032
1680,6861.290322580644
1700,6990.32258064516
1720,7345.16129032258
1740,7564.516129032258
1760,7483.870967741936
1780,7261.290322580644
1800,6532.258064516129
1820,5732.258064516129
1840,5448.387096774193
1860,5161.290322580645
1880,5296.774193548386
1900,5506.451612903226
1920,5503.225806451613
1940,5658.064516129032
1960,5516.129032258064
1980,5538.709677419355
2000,5422.580645161291
2020,5422.580645161291
2040,5422.580645161291
2060,5593.548387096775
2080,5512.903225806452
2100,5874.193548387097
2120,6306.451612903226
2140,5729.032258064516
2160,5522.58064516129
2180,5419.354838709677
2200,5419.354838709677
2220,5270.967741935484
2240,9983.870967741934
2260,6183.870967741936
2280,4177.419354838709
2300,5780.645161290322
2320,6109.677419354838
2340,6303.225806451613
2360,6554.83870967742
2380,6761.290322580645
2400,7090.322580645161
2420,7277.419354838708
2440,7558.064516129033
2460,7522.58064516129
2480,7099.999999999999
2500,6161.290322580644
2520,5606.451612903225
2540,5512.903225806452
2560,5409.677419354839
2580,5512.903225806452
2600,5487.096774193548
2620,5761.290322580645
2640,5712.903225806452
2660,5864.516129032258
2680,5683.870967741936
2700,5574.193548387097
2720,5729.032258064516
2740,5851.612903225807
2760,6206.451612903225
2780,6177.419354838709
2800,5987.096774193547
2820,5696.774193548386
2840,5448.387096774193
2860,5577.419354838709
2880,5258.064516129032
2900,10596.774193548386
2920,5583.870967741936
2940,4558.064516129033
2960,6145.1612903225805
2980,6200.0
3000,6277.419354838709
3020,6587.096774193548
3040,6896.774193548386
3060,7170.967741935483
3080,7367.741935483869
3100,7845.16129032258
3120,7661.290322580645
3140,6999.999999999999
3160,6267.741935483871
3180,5564.516129032258
3200,5441.935483870968
3220,5380.645161290323
3240,5554.83870967742
3260,5577.419354838709
3280,5587.096774193548
3300,5741.935483870967
3320,5722.580645161291
3340,5899.999999999999
3360,5635.483870967742
3380,5522.58064516129
3400,5661.290322580645
3420,5825.806451612903
3440,5987.096774193547
3460,6129.032258064515
3480,6383.870967741936
3502,5877.419354838709
3520,5622.58064516129
3540,5632.258064516129
3560,5470.967741935484
3580,5935.4838709677415
3600,12738.709677419354
3620,4338.709677419354
3640,5577.419354838709
3660,6251.612903225807
3680,6225.806451612903
3700,6441.935483870967
3720,6622.58064516129
3740,6935.4838709677415
3760,7332.258064516128
3780,7596.774193548387
3801,7854.838709677419
3821,7667.741935483871
3840,7054.838709677419
3860,6141.935483870968
3880,5622.58064516129
3900,5419.354838709677
3920,5574.193548387097
3940,5777.419354838709
3960,5570.967741935484
3980,5741.935483870967
4001,5832.258064516129
4020,5932.258064516129
4040,5748.387096774193
4060,5625.806451612903
4080,5790.322580645161
4100,5683.870967741936
4120,5835.4838709677415
4140,6045.1612903225805
4160,6290.322580645161
4180,6141.935483870968
4200,5680.645161290323
4220,5645.1612903225805
4240,5816.129032258064
4260,5503.225806451613
4280,10983.870967741936
4300,5864.516129032258
4320,4809.677419354839
4340,6225.806451612903
4360,6364.516129032258
4380,6600.0
4400,6667.74193548387
4420,6967.74193548387
4440,7209.677419354838
4460,7483.870967741936
4480,7896.774193548386
4500,7525.806451612903
4520,7196.7741935483855
4540,6367.74193548387
4560,5625.806451612903
4580,5516.129032258064
4600,5316.129032258064
4620,5477.41935483871
4640,5654.838709677419
4660,5625.806451612903
4680,5632.258064516129
4700,5648.387096774193
4720,5625.806451612903
4740,5654.838709677419
4760,5567.74193548387
4780,5867.74193548387
4800,6132.258064516129
4820,5935.4838709677415
4840,5661.290322580645
4860,5429.032258064516
4880,5522.58064516129
4900,5054.83870967742
4920,7332.258064516128
4940,9035.483870967742
4960,3951.6129032258063
4980,5622.58064516129
5000,5945.16129032258
5020,6061.290322580645
5040,6141.935483870968
5060,6603.225806451613
5080,6809.677419354838
5100,7183.870967741935
5120,7483.870967741936
5140,7467.741935483871
5160,7280.645161290321
5180,6512.903225806452
5200,5751.612903225806
5220,5283.870967741935
5240,5087.096774193548
5260,5316.129032258064
5280,5474.1935483870975
5300,5648.387096774193
5320,5770.967741935484
5340,5500.0
5360,5661.290322580645
5381,5661.290322580645
5400,5570.967741935484
5420,6048.387096774193
5440,6261.290322580646
5460,6035.4838709677415
5480,5783.870967741935
5500,5567.74193548387
5520,5412.903225806452
5540,5267.741935483871
5560,6209.677419354839
5580,11106.451612903224
5600,3900.0
5620,5625.806451612903
5640,6038.709677419354
5660,6264.5161290322585
5681,6245.1612903225805
5700,6535.4838709677415
5720,6919.354838709677
5741,7319.354838709676
5760,7538.709677419355
5780,7632.25806451613
5800,7490.322580645161
5820,6629.032258064516
5840,5809.677419354839
5860,5400.0
5880,5325.806451612903
5900,5480.645161290322
5920,5370.967741935484
5940,5419.354838709677
5960,5761.290322580645
5980,5725.806451612903
6000,5645.1612903225805
6020,5648.387096774193
6040,5529.032258064516
6060,5545.1612903225805
6080,5822.58064516129
6100,6058.064516129032
6120,6245.1612903225805
6140,5964.516129032258
6160,5483.870967741935
6180,5480.645161290322
6200,5316.129032258064
6220,5503.225806451613
6240,11303.225806451612
6260,5106.451612903225
6280,4641.935483870968
6300,5896.774193548386
6320,6125.806451612903
6340,6200.0
6360,6567.74193548387
6381,6819.354838709676
6400,7125.806451612903
6420,7516.129032258065
6440,7558.064516129033
6460,7454.8387096774195
6480,6909.677419354838
6500,6222.580645161291
6520,5477.41935483871
6540,5309.677419354838
6560,5422.580645161291
6580,5574.193548387097
6600,5306.451612903225
6620,5522.58064516129
6640,5467.741935483871
6660,5632.258064516129
6681,5645.1612903225805
6700,5558.064516129032
6720,5612.903225806451
6741,5445.1612903225805
6760,5793.548387096774
6780,6074.193548387096
6800,6209.677419354839
6820,5764.5161290322585
6840,5570.967741935484
6860,5312.903225806451
6880,5316.129032258064
6900,5574.193548387097
6920,11661.290322580644
6940,4538.709677419355
6960,5283.870967741935
6980,5983.870967741935
7000,6229.032258064516
7020,6251.612903225807
7040,6761.290322580645
7060,6758.064516129032
7081,7067.741935483869
7100,7461.290322580646
7120,7554.8387096774195
7140,7432.25806451613
7160,6780.645161290322
7180,5951.612903225806
7200,5435.483870967742
7220,5245.16129032258
7240,5212.903225806451
7260,5254.838709677419
7281,5467.741935483871
7300,5525.806451612903
7320,5522.58064516129
7340,5487.096774193548
7360,5503.225806451613
7380,5570.967741935484
7400,5467.741935483871
7420,5619.354838709677
7440,5990.322580645161
7460,6074.193548387096
7480,5729.032258064516
7500,5387.096774193548
7520,5377.41935483871
7540,5138.709677419355
7560,5419.354838709677
7580,11467.74193548387
7600,4835.4838709677415
7620,4541.935483870968
7640,5893.548387096775
7660,6006.451612903225
7680,6245.1612903225805
7700,6341.935483870968
7720,6751.612903225806
7740,6970.967741935483
7760,7399.999999999998
7780,7516.129032258065
7800,7351.612903225806
7820,6767.741935483871
7840,5951.612903225806
7860,5493.548387096774
7880,5261.290322580645
7900,5338.709677419354
7920,5419.354838709677
7940,5461.290322580645
7960,5641.935483870968
7980,5564.516129032258
8000,5567.74193548387
8020,5670.967741935484
8040,5616.129032258064
8060,5645.1612903225805
8080,5803.225806451613
8100,6180.645161290322
8120,6290.322580645161
8140,5958.064516129032
8160,5574.193548387097
8180,5435.483870967742
8200,5545.1612903225805
8220,5461.290322580645
8240,11335.483870967742
8260,5403.225806451613
8281,4696.774193548386
8300,6038.709677419354
8320,6238.709677419354
8340,6329.032258064516
8360,6558.064516129032
8380,6932.258064516129
8401,7222.58064516129
8420,7480.645161290322
8440,7793.548387096775
8460,7606.451612903225
8480,6977.419354838709
8501,6058.064516129032
8520,5490.322580645161
8541,5487.096774193548
8560,5235.4838709677415
8580,5454.83870967742
8600,5596.774193548387
8620,5677.419354838709
8640,5738.709677419354
8660,5687.096774193548
8681,5570.967741935484
8700,5561.290322580646
8720,5632.258064516129
8740,5554.83870967742
8760,5574.193548387097
8780,5622.58064516129
8800,5683.870967741936
8820,6038.709677419354
8840,6274.193548387097
8860,6119.354838709677
8880,5777.419354838709
8900,5525.806451612903
8920,5625.806451612903
8941,5167.74193548387
8960,8106.451612903224
8980,8680.645161290322
9000,4009.677419354839
9020,6038.709677419354
9040,6019.354838709677
9061,6254.83870967742
9080,6658.064516129031
9100,6741.935483870967
9120,7080.645161290322
9140,7435.483870967742
9160,7680.645161290323
9180,7741.935483870968
9200,7399.999999999998
9220,6641.935483870968
9241,5874.193548387097
9260,5374.193548387097
9280,5235.4838709677415
9300,5506.451612903226
9320,5422.580645161291
9340,5609.677419354838
9360,5800.0
9380,5719.354838709677
9400,5670.967741935484
9420,5612.903225806451
9440,5670.967741935484
9460,5558.064516129032
9480,5545.1612903225805
9500,5616.129032258064
9520,5706.451612903225
9540,5803.225806451613
9560,5990.322580645161
9581,6261.290322580646
9600,6077.419354838709
9620,5690.322580645161
9640,5674.193548387097
9660,5693.548387096774
9680,5306.451612903225
9700,9122.580645161292
9720,7138.709677419354
9740,4429.032258064516
9760,6077.419354838709
9780,6245.1612903225805
9800,6470.967741935484
9820,6658.064516129031
9840,6767.741935483871
9860,7051.612903225806
9880,7490.322580645161
9900,7722.580645161291
9920,7816.129032258064
9940,7306.451612903225
9960,6551.612903225807
9985,5803.225806451613
18,1729.0
38,1744.0
58,1786.0
78,1846.0
98,1903.0
118,1783.0
138,1691.0
158,1629.0
178,1616.0
198,1649.0
218,3287.0
238,1637.0
258,1375.0
278,1838.0
299,1872.0
318,1946.0
338,2023.0
358,2075.0
378,2241.0
399,2283.0
418,2320.0
438,2299.0
458,2089.0
478,1790.0
499,1623.0
518,1633.0
538,1561.0
558,1597.0
578,1691.0
598,1693.0
618,1670.0
638,1691.0
658,1747.0
678,1705.0
698,1661.0
718,1653.0
739,1697.0
758,1703.0
779,1802.0
798,1936.0
818,1862.0
838,1830.0
858,1694.0
878,1691.0
898,1631.0
918,1827.0
938,3906.0
958,1275.0
978,1728.0
999,1925.0
1018,1959.0
1038,1975.0
1058,2067.0
1077,2146.0
1098,2242.0
1118,2364.0
1138,2372.0
1158,2306.0
1178,2102.0
1198,1776.0
1219,1651.0
1238,1630.0
1258,1633.0
1278,1630.0
1298,1712.0
1318,1716.0
1338,1751.0
1358,1695.0
1378,1716.0
1398,1705.0
1418,1750.0
1438,1697.0
1458,1724.0
1477,1714.0
1498,1781.0
1518,1910.0
1538,1936.0
1558,1803.0
1578,1729.0
1598,1699.0
1618,1702.0
1638,1746.0
1658,3712.0
1678,1456.0
1698,1664.0
1718,1917.0
1738,1977.0
1758,1983.0
1778,2081.0
1798,2185.0
1818,2218.0
1838,2426.0
1858,2399.0
1878,2398.0
1898,2115.0
1918,1859.0
1938,1687.0
1958,1652.0
1977,1648.0
1997,1718.0
2018,1713.0
2038,1698.0
2058,1746.0
2078,1751.0
2098,1759.0
2118,1774.0
2138,1743.0
2158,1711.0
2178,1779.0
2198,1772.0
2218,1904.0
2238,1847.0
2258,1935.0
2278,1856.0
2299,1796.0
2318,1751.0
2338,1683.0
2358,1753.0
2377,3552.0
2398,1631.0
2418,1516.0
2438,1941.0
2458,1952.0
2478,2026.0
2498,2083.0
2518,2128.0
2537,2230.0
2558,2352.0
2577,2407.0
2598,2322.0
2618,2163.0
2638,1902.0
2659,1776.0
2678,1694.0
2698,1666.0
2718,1602.0
2738,1735.0
2758,1786.0
2778,1755.0
2798,1735.0
2818,1766.0
2838,1744.0
2859,1767.0
2878,1761.0
2898,1818.0
2918,1925.0
2938,1861.0
2958,1670.0
2978,1645.0
2998,1671.0
3018,1705.0
3038,3286.0
3058,1714.0
3078,1322.0
3098,1863.0
3118,1845.0
3138,1954.0
3158,2017.0
3178,2123.0
3198,2186.0
3218,2319.0
3238,2319.0
3258,2317.0
3278,2125.0
3298,1829.0
3318,1691.0
3338,1635.0
3358,1601.0
3378,1664.0
3399,1694.0
3418,1744.0
3439,1714.0
3458,1798.0
3478,1707.0
3498,1749.0
3518,1698.0
3538,1730.0
3558,1738.0
3578,1767.0
3598,1919.0
3619,1941.0
3638,1862.0
3658,1731.0
3679,1727.0
3698,1751.0
3718,1738.0
3738,3568.0
3758,1591.0
3778,1607.0
3798,1885.0
3818,1959.0
3838,1997.0
3858,2065.0
3878,2185.0
3898,2274.0
3918,2370.0
3938,2379.0
3958,2375.0
3978,2112.0
3998,1875.0
4018,1682.0
4038,1633.0
4058,1641.0
4078,1686.0
4098,1712.0
4118,1776.0
4138,1707.0
4158,1777.0
4178,1718.0
4198,1734.0
4218,1742.0
4238,1741.0
4258,1718.0
4278,1860.0
4298,1942.0
4318,1845.0
4338,1770.0
4358,1719.0
4377,1715.0
4398,1648.0
4418,2626.0
4438,2402.0
4458,1234.0
4478,1863.0
4498,1962.0
4518,2027.0
4538,1987.0
4558,2169.0
4578,2234.0
4598,2335.0
4618,2423.0
4638,2417.0
4658,2321.0
4678,1827.0
4698,1682.0
4718,1663.0
4738,1616.0
4758,1600.0
4778,1707.0
4798,1754.0
4818,1735.0
4838,1691.0
4858,1789.0
4878,1754.0
4898,1714.0
4918,1714.0
4938,1753.0
4958,1789.0
4978,1838.0
4998,1885.0
5018,1743.0
5038,1664.0
5058,1719.0
5078,1777.0
5098,3200.0
5118,1803.0
5138,1407.0
5158,2013.0
5178,1850.0
5198,2021.0
5218,2073.0
5238,2177.0
5258,2173.0
5278,2352.0
5298,2450.0
5318,2355.0
5338,2160.0
5358,1979.0
5378,1726.0
5398,1600.0
5418,1641.0
5438,1663.0
5458,1717.0
5478,1766.0
5498,1749.0
5518,1774.0
5538,1758.0
5558,1791.0
5578,1811.0
5598,1950.0
5618,1853.0
5638,1775.0
5658,1709.0
5678,1755.0
5698,1590.0
5718,2416.0
5738,2506.0
5758,1270.0
5778,1839.0
5798,1899.0
5818,1991.0
5838,2011.0
5858,2117.0
5878,2224.0
5898,2356.0
5918,2384.0
5938,2395.0
5958,2272.0
5978,1882.0
5998,1827.0
6018,1729.0
6038,1699.0
6058,1709.0
6078,1749.0
6098,1749.0
6118,1803.0
6138,1802.0
6158,1761.0
6178,1825.0
6198,1792.0
6218,1919.0
6238,1936.0
6258,1945.0
6278,1872.0
6298,1766.0
6318,1741.0
6338,1687.0
6358,1798.0
6378,3989.0
6398,1360.0
6418,1714.0
6438,1900.0
6458,1978.0
6478,1990.0
6498,2064.0
6518,2167.0
6538,2287.0
6558,2435.0
6578,2413.0
6598,2353.0
6618,2106.0
6638,1818.0
6658,1535.0
6678,1597.0
6698,1659.0
6718,1533.0
6738,1680.0
6758,1660.0
6778,1776.0
6798,1712.0
6818,1675.0
6838,1781.0
6858,1530.0
6878,1856.0
6898,1901.0
6919,1851.0
6938,1833.0
6959,1681.0
6978,1606.0
6999,1680.0
7019,1781.0
7038,3792.0
7058,1397.0
7078,1579.0
7099,1898.0
7119,1871.0
7138,1968.0
7158,2085.0
7178,2054.0
7199,2276.0
7219,2288.0
7238,2530.0
7258,2230.0
7278,2066.0
7298,1956.0
7318,1519.0
7338,1616.0
7358,1535.0
7378,1654.0
7398,1631.0
7419,1692.0
7438,1767.0
7458,1704.0
7478,1773.0
7498,1715.0
7519,1721.0
7538,1735.0
7558,1922.0
7578,1867.0
7598,1916.0
7618,1725.0
7638,1710.0
7658,1659.0
7678,1581.0
7698,2347.0
7718,2752.0
7738,1175.0
7758,1899.0
7779,1933.0
7799,1933.0
7819,2085.0
7838,2096.0
7858,2197.0
7878,2339.0
7898,2416.0
7918,2352.0
7939,2201.0
7958,1904.0
7978,1734.0
7998,1667.0
8019,1677.0
8038,1641.0
8058,1651.0
8079,1702.0
8099,1743.0
8119,1734.0
8138,1738.0
8158,1758.0
8178,1716.0
8198,1683.0
8218,1766.0
8238,1813.0
8258,1936.0
8278,1797.0
8299,1745.0
8319,1674.0
8338,1678.0
8359,1582.0
8378,2534.0
8399,2279.0
8419,1258.0
8439,1823.0
8458,1873.0
8478,1949.0
8498,1966.0
8518,2069.0
8538,2192.0
8558,2266.0
8578,2319.0
8598,2330.0
8618,2192.0
8638,1873.0
8658,1712.0
8678,1648.0
8698,1633.0
8719,1675.0
8738,1691.0
8758,1733.0
8779,1761.0
8799,1718.0
8818,1706.0
8839,1673.0
8858,1675.0
8878,1777.0
8899,1893.0
8918,1862.0
8938,1771.0
8958,1702.0
8978,1648.0
8999,1586.0
9019,1985.0
9038,3071.0
9058,1241.0
9080,1757.0
9099,1845.0
9119,1904.0
9138,2000.0
9159,2033.0
9179,2157.0
9199,2288.0
9218,2373.0
9238,2348.0
9258,2242.0
9279,1987.0
9299,1744.0
9319,1671.0
9339,1606.0
9358,1670.0
9378,1713.0
9399,1749.0
9419,1728.0
9438,1776.0
9458,1771.0
9478,1750.0
9499,1731.0
9519,1745.0
9539,1711.0
9558,1739.0
9579,1776.0
9599,1840.0
9618,1922.0
9638,1901.0
9658,1895.0
9679,1732.0
9699,1765.0
9719,1679.0
9739,1845.0
9758,3887.0
9778,1444.0
9799,1654.0
9818,1949.0
9839,1935.0
9859,2047.0
9878,2087.0
9899,2215.0
9919,2241.0
9939,2383.0
9958,2411.0
9979,2346.0
9999,2137.0
15,7319.354838709676
35,6896.774193548386
55,6125.806451612903
75,5390.322580645162
95,5319.354838709676
115,5109.677419354838
135,5429.032258064516
156,5648.387096774193
176,5674.193548387097
196,5658.064516129032
216,5635.483870967742
236,5522.58064516129
256,5512.903225806452
276,5580.645161290322
297,5564.516129032258
316,5522.58064516129
335,5441.935483870968
356,5596.774193548387
377,5780.645161290322
396,6145.1612903225805
416,6141.935483870968
436,5787.096774193548
456,5625.806451612903
476,5545.1612903225805
496,5364.516129032258
516,5935.4838709677415
536,11712.90322580645
556,4603.225806451614
576,5100.0
596,6100.0
616,6216.129032258064
636,6383.870967741936
656,6709.677419354838
676,6922.58064516129
696,7351.612903225806
716,7380.645161290322
736,7464.516129032258
756,7306.451612903225
775,6680.645161290322
796,5983.870967741935
816,5583.870967741936
836,5374.193548387097
855,5422.580645161291
875,5503.225806451613
895,5596.774193548387
916,5693.548387096774
936,5832.258064516129
956,5738.709677419354
976,5700.0
995,5680.645161290323
1015,5706.451612903225
1035,5648.387096774193
1055,5722.580645161291
1076,5796.774193548387
1095,6038.709677419354
1115,6325.806451612903
1135,6461.290322580645
1155,6029.032258064515
1176,5677.419354838709
1196,5629.032258064516
1216,5580.645161290322
1236,5748.387096774193
1256,12867.741935483871
1276,4800.0
1296,5232.258064516128
1315,6232.258064516129
1335,6348.387096774194
1355,6570.967741935483
1376,6709.677419354838
1395,6999.999999999999
1415,7325.806451612902
1436,7629.032258064516
1455,7693.548387096774
1475,7567.741935483871
1496,6874.193548387096
1515,6061.290322580645
1535,5516.129032258064
1555,5335.4838709677415
1576,5367.741935483871
1596,5512.903225806452
1615,5616.129032258064
1635,5609.677419354838
1656,5812.903225806451
1676,5729.032258064516
1696,5654.838709677419
1715,5590.322580645161
1736,5777.419354838709
1755,5558.064516129032
1775,5590.322580645161
1795,5570.967741935484
1815,5758.064516129032
1835,5680.645161290323
1856,5735.4838709677415
1876,6161.290322580644
1896,6409.677419354838
1916,6209.677419354839
1936,5906.451612903225
1956,5796.774193548387
1976,5735.4838709677415
1996,5316.129032258064
2016,8254.838709677419
2036,8887.096774193547
2055,4061.290322580645
2075,6300.0
2095,6290.322580645161
2116,6570.967741935483
2136,6699.999999999999
2155,6938.709677419354
2175,7393.548387096774
2196,7487.096774193548
2215,7864.516129032258
2236,7770.967741935484
2256,7380.645161290322
2276,6587.096774193548
2296,5864.516129032258
2316,5503.225806451613
2336,5332.258064516129
2356,5519.354838709678
2376,5483.870967741935
2396,5722.580645161291
2416,5800.0
2436,5745.1612903225805
2456,5729.032258064516
2476,5735.4838709677415
2496,5680.645161290323
2516,5593.548387096775
2536,5632.258064516129
2556,5683.870967741936
2577,5761.290322580645
2596,5625.806451612903
2616,5754.83870967742
2636,6019.354838709677
2656,6309.677419354839
2676,6151.612903225806
2695,5899.999999999999
2715,5777.419354838709
2735,5593.548387096775
2756,5222.58064516129
2775,7145.1612903225805
2796,10374.193548387097
2815,3919.3548387096776
2835,6038.709677419354
2855,6145.1612903225805
2876,6419.354838709677
2896,6577.419354838709
2916,6990.32258064516
2935,6970.967741935483
2955,7387.096774193547
2975,7632.25806451613
2995,7651.612903225806
3015,7277.419354838708
3035,6635.4838709677415
3055,5822.58064516129
3075,5532.258064516129
3095,5212.903225806451
3115,5358.064516129031
3136,5506.451612903226
3155,5596.774193548387
3175,5596.774193548387
3195,5648.387096774193
3215,5661.290322580645
3235,5529.032258064516
3255,5525.806451612903
3275,5577.419354838709
3295,5606.451612903225
3315,5551.612903225807
3335,5551.612903225807
3355,5445.1612903225805
3375,5545.1612903225805
3395,6003.225806451613
3415,6141.935483870968
3436,6125.806451612903
3455,5748.387096774193
3475,5625.806451612903
3495,5474.1935483870975
3515,5135.4838709677415
3535,7299.999999999999
3555,9764.516129032258
3576,3822.5806451612902
3595,5877.419354838709
3615,6245.1612903225805
3635,6083.870967741935
3655,6422.580645161291
3675,6603.225806451613
3697,7112.903225806451
3715,7280.645161290321
3735,7538.709677419355
3755,7519.354838709678
3775,7129.032258064515
3796,6525.806451612903
3816,5800.0
3835,5377.41935483871
3855,5216.129032258064
3876,5351.612903225806
3896,5409.677419354839
3916,5641.935483870968
3936,5622.58064516129
3955,5687.096774193548
3975,5593.548387096775
3996,5574.193548387097
4015,5493.548387096774
4035,5419.354838709677
4055,5674.193548387097
4075,5835.4838709677415
4095,6096.774193548386
4115,6235.4838709677415
4135,5800.0
4155,5625.806451612903
4175,5577.419354838709
4195,5422.580645161291
4215,5558.064516129032
4235,12232.258064516129
4255,5122.58064516129
4275,4764.5161290322585
4295,6074.193548387096
4315,6341.935483870968
4335,6483.870967741935
4355,6661.290322580645
4375,6990.32258064516
4395,7377.419354838708
4415,7606.451612903225
4435,7690.322580645161
4455,7545.16129032258
4475,6896.774193548386
4495,6096.774193548386
4516,5625.806451612903
4535,5454.83870967742
4555,5464.5161290322585
4576,5538.709677419355
4596,5651.612903225806
4615,5751.612903225806
4635,5780.645161290322
4656,5683.870967741936
4676,5693.548387096774
4696,5732.258064516129
4716,5629.032258064516
4736,5580.645161290322
4755,5629.032258064516
4776,5970.967741935484
4796,6229.032258064516
4816,6416.129032258064
4836,5993.548387096774
4856,5696.774193548386
4877,5577.419354838709
4896,5529.032258064516
4916,5687.096774193548
4936,12851.612903225809
4955,4532.258064516128
4976,5316.129032258064
4996,6141.935483870968
5016,6261.290322580646
5036,6293.548387096775
5056,6648.387096774192
5076,6938.709677419354
5096,7177.419354838709
5116,7419.354838709676
5136,7570.967741935484
5156,7516.129032258065
5176,6777.419354838708
5196,6080.645161290322
5216,5545.1612903225805
5236,5206.451612903225
5256,5287.096774193547
5275,5425.806451612903
5295,5532.258064516129
5315,5580.645161290322
5336,5664.516129032258
5355,5609.677419354838
5375,5625.806451612903
5395,5512.903225806452
5415,5609.677419354838
5435,5554.83870967742
5455,5535.4838709677415
5475,5474.1935483870975
5495,5977.419354838709
5516,6209.677419354839
5536,5932.258064516129
5556,5693.548387096774
5576,5400.0
5596,5658.064516129032
5615,5100.0
5635,8254.838709677419
5655,8241.935483870968
5676,3893.548387096774
5696,6038.709677419354
5715,6193.548387096774
5735,6229.032258064516
5755,6577.419354838709
5776,6670.967741935484
5796,7064.516129032257
5815,7216.129032258063
5835,7516.129032258065
5855,7483.870967741936
5876,7116.129032258064
5896,6258.064516129032
5915,5522.58064516129
5936,5312.903225806451
5956,5248.387096774193
5976,5267.741935483871
5996,5419.354838709677
6016,5532.258064516129
6036,5535.4838709677415
6056,5629.032258064516
6076,5500.0
6096,5519.354838709678
6116,5506.451612903226
6136,5564.516129032258
6156,5529.032258064516
6176,5522.58064516129
6196,5548.387096774193
6215,5780.645161290322
6235,6019.354838709677
6256,6251.612903225807
6275,5880.645161290322
6295,5587.096774193548
6315,5435.483870967742
6335,5538.709677419355
6356,5316.129032258064
6375,10858.064516129032
6396,5709.677419354838
6415,4638.709677419355
6435,6170.967741935483
6455,6193.548387096774
6476,6519.354838709678
6496,6496.774193548386
6515,6816.129032258064
6536,7209.677419354838
6555,7441.935483870968
6576,7590.322580645162
6596,7374.193548387096
6615,6899.999999999999
6635,6177.419354838709
6656,5483.870967741935
6676,5229.032258064516
6696,5206.451612903225
6716,5312.903225806451
6736,5535.4838709677415
6756,5558.064516129032
6776,5574.193548387097
6796,5574.193548387097
6816,5625.806451612903
6836,5412.903225806452
6856,5474.1935483870975
6875,5403.225806451613
6895,5545.1612903225805
6915,5522.58064516129
6935,5880.645161290322
6955,6141.935483870968
6976,6038.709677419354
6996,5558.064516129032
7015,5380.645161290323
7035,5358.064516129031
7055,5093.548387096774
7076,7022.580645161289
7096,9600.0
7115,3812.903225806452
7135,5625.806451612903
7156,6029.032258064515
7176,6187.096774193548
7196,6358.064516129032
7215,6709.677419354838
7235,6980.645161290321
7256,7190.32258064516
7276,7464.516129032258
7296,7551.612903225807
7316,7116.129032258064
7336,6570.967741935483
7356,5845.1612903225805
7375,5419.354838709677
7396,5367.741935483871
7415,5419.354838709677
7436,5525.806451612903
7455,5729.032258064516
7475,5848.387096774193
7495,5700.0
7515,5729.032258064516
7535,5693.548387096774
7555,5793.548387096774
7575,5641.935483870968
7596,5777.419354838709
7615,5751.612903225806
7635,6232.258064516129
7655,6454.83870967742
7675,6461.290322580645
7695,6006.451612903225
7715,5667.741935483871
7735,5738.709677419354
7755,5487.096774193548
7776,6145.1612903225805
7796,13209.677419354835
7816,3993.548387096774
7836,5774.193548387096
7856,6193.548387096774
7876,6396.774193548386
7896,6480.645161290322
7916,6812.903225806451
7935,7019.354838709677
7955,7274.193548387096
7976,7638.709677419355
7995,7648.387096774193
8015,7383.870967741935
8035,6835.4838709677415
8055,5987.096774193547
8075,5561.290322580646
8095,5167.74193548387
8115,5283.870967741935
8135,5454.83870967742
8155,5532.258064516129
8175,5667.741935483871
8196,5625.806451612903
8215,5803.225806451613
8235,5625.806451612903
8255,5577.419354838709
8275,5564.516129032258
8295,5606.451612903225
8315,5525.806451612903
8335,5538.709677419355
8355,5596.774193548387
8376,5967.74193548387
8396,6267.741935483871
8415,6100.0
8435,5970.967741935484
8455,5458.064516129032
8476,5419.354838709677
8496,5374.193548387097
8516,6193.548387096774
8536,12225.806451612902
8555,3967.741935483871
8576,5580.645161290322
8596,6035.4838709677415
8616,6158.064516129031
8636,6338.709677419355
8656,6480.645161290322
8676,6803.225806451613
8696,7164.516129032257
8716,7448.387096774193
8735,7503.225806451614
8756,7219.354838709677
8775,6603.225806451613
8796,5880.645161290322
8816,5370.967741935484
8836,5161.290322580645
8856,5212.903225806451
8875,5261.290322580645
8895,5429.032258064516
8915,5419.354838709677
8936,5522.58064516129
8956,5564.516129032258
8976,5567.74193548387
8995,5316.129032258064
9016,5419.354838709677
9035,5364.516129032258
9056,5612.903225806451
9075,5441.935483870968
9095,5625.806451612903
9116,5596.774193548387
9136,5696.774193548386
9155,5932.258064516129
9175,6222.580645161291
9195,6067.74193548387
9215,5832.258064516129
9235,5648.387096774193
9255,5535.4838709677415
9275,5177.419354838709
9295,7890.322580645162
9315,8874.193548387097
9335,4035.4838709677415
9355,6090.322580645161
9375,6245.1612903225805
9395,6422.580645161291
9415,6658.064516129031
9436,6767.741935483871
9456,7151.612903225805
9476,7380.645161290322
9495,7622.580645161291
9515,7677.41935483871
9535,7225.8064516129025
9555,6551.612903225807
9575,5777.419354838709
9595,5558.064516129032
9615,5312.903225806451
9636,5416.129032258064
9655,5580.645161290322
9675,5641.935483870968
9696,5712.903225806452
9715,5593.548387096775
9736,5696.774193548386
9755,5558.064516129032
9775,5535.4838709677415
9795,5677.419354838709
9815,5612.903225806451
9835,5625.806451612903
9855,5567.74193548387
9875,5638.709677419355
9895,5648.387096774193
9915,5983.870967741935
9935,6222.580645161291
9965,6209.677419354839
9975,5977.419354838709
9995,5696.774193548386
10015,5638.709677419355
