timestamp_ms,ecg_value
18,5400.0
38,5696.774193548386
58,5312.903225806451
78,5748.387096774193
97,5641.935483870968
118,5864.516129032258
138,5712.903225806452
158,5467.741935483871
178,6038.709677419354
198,6174.193548387097
218,6164.516129032258
238,6080.645161290322
258,5641.935483870968
278,5693.548387096774
298,5396.774193548386
317,5609.677419354838
338,11919.354838709676
358,5025.806451612903
378,5161.290322580645
398,6148.387096774192
418,6396.774193548386
438,6519.354838709678
458,6719.354838709677
478,6832.258064516129
498,7245.16129032258
518,7712.903225806452
538,8006.451612903225
558,7625.806451612903
578,7019.354838709677
598,6087.096774193548
618,5487.096774193548
638,5258.064516129032
658,5158.064516129031
678,5341.935483870967
698,5464.5161290322585
718,5648.387096774193
738,5683.870967741936
758,5690.322580645161
778,5629.032258064516
798,5474.1935483870975
818,5625.806451612903
838,5780.645161290322
858,5522.58064516129
878,5629.032258064516
898,5596.774193548387
918,6345.1612903225805
938,6106.4516129032245
958,6035.4838709677415
978,5945.16129032258
998,5574.193548387097
1018,5422.580645161291
1038,5322.58064516129
1058,9100.0
1078,7064.516129032257
1098,4219.354838709677
1118,6080.645161290322
1138,6245.1612903225805
1158,6316.129032258064
1178,6345.1612903225805
1198,6854.838709677419
1218,7087.096774193547
1238,7683.870967741936
1258,7896.774193548386
1278,7690.322580645161
1298,7299.999999999999
1318,6525.806451612903
1338,5751.612903225806
1358,5164.516129032258
1378,5203.225806451613
1398,5264.516129032258
1418,5448.387096774193
1438,5480.645161290322
1458,5609.677419354838
1478,5729.032258064516
1498,5729.032258064516
1518,5483.870967741935
1538,5529.032258064516
1559,5677.419354838709
1578,5777.419354838709
1598,5996.774193548386
1618,6238.709677419354
1638,5993.548387096774
1658,5606.451612903225
1678,5522.58064516129
1698,5448.387096774193
1718,5577.419354838709
1738,10764.516129032258
1758,5716.129032258064
1778,4429.032258064516
1798,6206.451612903225
1818,6125.806451612903
1838,6435.483870967742
1858,6758.064516129032
1878,6812.903225806451
1907,7235.483870967741
1918,7416.129032258063
1938,7970.967741935484
1958,7690.322580645161
1978,7270.967741935483
1998,6009.677419354838
2018,5554.83870967742
2038,5180.645161290322
2058,5245.16129032258
2078,5370.967741935484
2098,5464.5161290322585
2118,5777.419354838709
2138,5477.41935483871
2158,5935.4838709677415
2178,5535.4838709677415
2198,5580.645161290322
2218,5564.516129032258
2238,5622.58064516129
2258,5625.806451612903
2278,5712.903225806452
2298,5454.83870967742
2318,5567.74193548387
2338,5919.354838709677
2358,6306.451612903226
2378,6109.677419354838
2398,6109.677419354838
2418,5609.677419354838
2438,5761.290322580645
2458,5435.483870967742
2478,5880.645161290322
2498,12593.548387096776
2518,4951.612903225806
2538,5248.387096774193
2558,6238.709677419354
2578,6296.774193548387
2598,6580.645161290322
2618,6832.258064516129
2638,7145.1612903225805
2658,7174.193548387096
2678,7909.677419354838
2698,8103.225806451614
2718,7945.16129032258
2738,7080.645161290322
2758,6141.935483870968
2778,5541.935483870968
2798,5461.290322580645
2818,5196.774193548386
2838,5419.354838709677
2858,5538.709677419355
2878,5590.322580645161
2898,5609.677419354838
2918,5677.419354838709
2938,5522.58064516129
2958,5577.419354838709
2978,5700.0
2998,5616.129032258064
3018,5677.419354838709
3038,5609.677419354838
3058,5625.806451612903
3078,5625.806451612903
3098,5732.258064516129
3118,5935.4838709677415
3138,6154.838709677419
3158,6248.387096774193
3178,5983.870967741935
3198,5935.4838709677415
3218,5680.645161290323
3238,5825.806451612903
3258,5403.225806451613
3278,9187.09677419355
3298,7796.774193548387
3318,4300.0
3338,6209.677419354839
3358,6238.709677419354
3378,6658.064516129031
3398,6487.096774193548
3418,7103.225806451613
3438,7261.290322580644
3458,7500.0
3478,7906.451612903225
3498,7987.096774193548
3518,7558.064516129033
3538,6654.838709677419
3558,5800.0
3578,5209.677419354838
3598,5316.129032258064
3618,5367.741935483871
3638,5254.838709677419
3658,5522.58064516129
3678,5464.5161290322585
3698,5538.709677419355
3718,5477.41935483871
3738,5729.032258064516
3758,5661.290322580645
3778,5612.903225806451
3798,5422.580645161291
3818,5629.032258064516
3838,5603.225806451614
3858,5570.967741935484
3878,5729.032258064516
3898,6019.354838709677
3918,6180.645161290322
3938,5987.096774193547
3958,5706.451612903225
3978,5470.967741935484
3998,5709.677419354838
4018,5429.032258064516
4038,9193.548387096776
4058,7193.548387096773
4078,4303.225806451613
4098,6045.1612903225805
4118,6216.129032258064
4138,6574.193548387097
4158,6590.322580645161
4178,6964.516129032258
4198,7161.290322580644
4218,7680.645161290323
4238,7890.322580645162
4258,7958.064516129032
4278,7564.516129032258
4298,6696.774193548386
4318,5667.741935483871
4338,5309.677419354838
4358,5232.258064516128
4378,5235.4838709677415
4398,5419.354838709677
4418,5396.774193548386
4438,5683.870967741936
4458,5558.064516129032
4478,5758.064516129032
4498,5532.258064516129
4518,5580.645161290322
4538,5667.741935483871
4558,5667.741935483871
4578,5567.74193548387
4598,5796.774193548387
4618,5641.935483870968
4638,5832.258064516129
4658,6293.548387096775
4678,6174.193548387097
4698,5883.870967741936
4718,5522.58064516129
4738,5712.903225806452
4758,5570.967741935484
4778,6212.903225806452
4798,12003.225806451612
4818,4687.096774193549
4838,5270.967741935484
4858,6070.967741935483
4878,6470.967741935484
4898,6345.1612903225805
4918,6790.322580645161
4938,6899.999999999999
4958,7587.096774193548
4978,7761.290322580646
4998,7951.612903225806
5018,7896.774193548386
5038,6764.516129032258
5058,5977.419354838709
5078,5516.129032258064
5098,5119.354838709677
5118,5245.16129032258
5138,5316.129032258064
5158,5367.741935483871
5178,5406.451612903225
5198,5558.064516129032
5218,5441.935483870968
5238,5725.806451612903
5258,5435.483870967742
5278,5577.419354838709
5298,5680.645161290323
5318,5454.83870967742
5338,5629.032258064516
5358,5506.451612903226
5378,5609.677419354838
5398,5741.935483870967
5418,5822.58064516129
5439,6087.096774193548
5458,6193.548387096774
5478,6070.967741935483
5498,5732.258064516129
5518,5693.548387096774
5538,5658.064516129032
5558,5554.83870967742
5578,10106.451612903224
5598,6658.064516129031
5618,4387.096774193548
5638,6158.064516129031
5658,6338.709677419355
5678,6377.419354838709
5698,6451.612903225806
5718,6851.612903225806
5738,7216.129032258063
5758,7522.58064516129
5778,7877.419354838709
5798,7880.645161290323
5818,7632.25806451613
5838,6348.387096774194
5858,5525.806451612903
5878,5300.0
5898,5061.290322580645
5918,5203.225806451613
5938,5338.709677419354
5958,5383.870967741936
5978,5480.645161290322
5998,5419.354838709677
6018,5525.806451612903
6038,5458.064516129032
6058,5564.516129032258
6078,5541.935483870968
6098,5377.41935483871
6118,5570.967741935484
6138,5503.225806451613
6158,5635.483870967742
6178,5729.032258064516
6198,5661.290322580645
6218,6190.322580645161
6238,5912.903225806451
6258,5951.612903225806
6278,5674.193548387097
6298,5570.967741935484
6318,5258.064516129032
6338,6767.741935483871
6358,11254.83870967742
6379,3887.096774193548
6398,5838.709677419354
6418,6196.774193548387
6438,6300.0
6458,6538.709677419354
6478,6774.193548387096
6498,7106.4516129032245
6518,7361.290322580644
6538,7841.935483870968
6558,8051.612903225806
6578,7758.064516129032
6598,6964.516129032258
6618,6145.1612903225805
6638,5316.129032258064
6658,5293.548387096774
6678,5080.645161290322
6698,5332.258064516129
6718,5316.129032258064
6738,5519.354838709678
6758,5541.935483870968
6778,5706.451612903225
6798,5483.870967741935
6818,5519.354838709678
6838,5516.129032258064
6858,5632.258064516129
6878,5522.58064516129
6898,5512.903225806452
6918,5796.774193548387
6938,5632.258064516129
6958,6016.129032258064
6978,6193.548387096774
6998,5774.193548387096
7018,5764.5161290322585
7038,5503.225806451613
7058,5635.483870967742
7078,5661.290322580645
7098,11509.67741935484
7118,5577.419354838709
7138,4641.935483870968
7159,6070.967741935483
7178,6296.774193548387
7198,6396.774193548386
7218,6603.225806451613
7238,6925.806451612903
7258,7145.1612903225805
7278,7590.322580645162
7298,7912.903225806452
7318,7680.645161290323
7338,7212.903225806451
7358,6245.1612903225805
7378,5487.096774193548
7398,5229.032258064516
7418,5093.548387096774
7438,5199.999999999999
7458,5316.129032258064
7478,5435.483870967742
7498,5635.483870967742
7518,5419.354838709677
7539,5538.709677419355
7559,5564.516129032258
7578,5419.354838709677
7598,5467.741935483871
7618,5512.903225806452
7638,5835.4838709677415
7658,6138.709677419354
7679,5864.516129032258
7698,5693.548387096774
7718,5538.709677419355
7739,5558.064516129032
7759,5029.032258064515
7778,6864.516129032258
7799,9819.354838709676
7818,4132.258064516129
7838,5383.870967741936
7858,6032.258064516128
7878,6196.774193548387
7898,6467.741935483871
7918,6687.096774193548
7938,7174.193548387096
7958,7287.096774193547
7978,7477.41935483871
7998,7887.096774193548
8018,7622.580645161291
8038,6512.903225806452
8058,5832.258064516129
8078,5316.129032258064
8099,5364.516129032258
8119,5390.322580645162
8138,5387.096774193548
8158,5619.354838709677
8178,5622.58064516129
8198,5570.967741935484
8218,5664.516129032258
8238,5719.354838709677
8258,5712.903225806452
8278,5641.935483870968
8298,5780.645161290322
8318,5693.548387096774
8338,5470.967741935484
8358,6093.548387096774
8379,6348.387096774194
8398,6129.032258064515
8418,5980.645161290322
8438,5667.741935483871
8458,5577.419354838709
8479,5254.838709677419
8498,7035.483870967741
8518,11019.354838709678
8539,3796.7741935483873
8558,5893.548387096775
8578,6158.064516129031
8598,6512.903225806452
8618,6406.451612903225
8638,6803.225806451613
8658,7119.354838709676
8678,7399.999999999998
8698,8051.612903225806
8718,7977.41935483871
8738,7700.0
8759,6825.806451612903
8778,5903.225806451612
8798,5270.967741935484
8818,5270.967741935484
8838,5367.741935483871
8858,5212.903225806451
8878,5477.41935483871
8898,5570.967741935484
8918,5458.064516129032
8938,5683.870967741936
8958,5770.967741935484
8978,5229.032258064516
8998,5487.096774193548
9018,5722.580645161291
9038,5732.258064516129
9058,6132.258064516129
9078,6238.709677419354
9098,5929.032258064516
9119,5712.903225806452
9139,5306.451612903225
9159,5287.096774193547
9178,5574.193548387097
9198,11370.967741935485
9218,5141.935483870968
9238,4690.322580645161
9258,6119.354838709677
9278,6061.290322580645
9298,6474.193548387097
9318,6751.612903225806
9338,6748.387096774193
9358,7345.16129032258
9378,7587.096774193548
9398,7738.709677419354
9418,7570.967741935484
9438,7261.290322580644
9458,6003.225806451613
9478,5487.096774193548
9498,5277.419354838708
9518,5464.5161290322585
9539,5112.903225806451
9558,5374.193548387097
9578,5503.225806451613
9598,5729.032258064516
9618,5519.354838709678
9638,5441.935483870968
9658,5583.870967741936
9678,5454.83870967742
9698,5680.645161290323
9719,6032.258064516128
9738,6177.419354838709
9758,5706.451612903225
9778,5532.258064516129
9799,5429.032258064516
9819,5158.064516129031
9839,5606.451612903225
9859,11890.32258064516
9878,4951.612903225806
9898,5161.290322580645
9919,5741.935483870967
9938,6103.225806451613
9958,6229.032258064516
9978,6548.387096774193
9998,6777.419354838708
10019,7087.096774193547
14,1659.0
35,1766.0
54,1718.0
74,1665.0
94,1748.0
115,1750.0
135,1795.0
154,1848.0
175,1938.0
194,1861.0
214,1773.0
235,1767.0
254,1791.0
274,1828.0
294,3286.0
315,1853.0
334,1523.0
354,1917.0
374,1915.0
395,2006.0
415,2032.0
435,2217.0
454,2279.0
474,2411.0
494,2543.0
514,2441.0
535,2340.0
554,2149.0
575,1744.0
594,1693.0
614,1757.0
634,1685.0
654,1710.0
675,1721.0
694,1750.0
715,1759.0
735,1744.0
754,1693.0
774,1762.0
794,1708.0
814,1744.0
834,1737.0
854,1744.0
874,1875.0
894,1909.0
915,1856.0
935,1823.0
954,1699.0
974,1776.0
994,1619.0
1014,2395.0
1034,2659.0
1054,1417.0
1074,1759.0
1094,1903.0
1114,1955.0
1134,2023.0
1154,2068.0
1174,2219.0
1194,2240.0
1214,2411.0
1234,2330.0
1254,2354.0
1274,2107.0
1294,1859.0
1314,1718.0
1334,1733.0
1354,1637.0
1374,1669.0
1394,1734.0
1414,1759.0
1434,1791.0
1454,1803.0
1474,1793.0
1494,1712.0
1514,1778.0
1534,1751.0
1554,1874.0
1574,1924.0
1594,1904.0
1614,1853.0
1634,1717.0
1654,1745.0
1674,1629.0
1694,2384.0
1714,2800.0
1734,1333.0
1754,1823.0
1774,1903.0
1794,1938.0
1814,2011.0
1834,2125.0
1854,2145.0
1874,2285.0
1894,2381.0
1914,2462.0
1934,2399.0
1954,2091.0
1974,1797.0
1994,1712.0
2014,1627.0
2034,1647.0
2054,1679.0
2074,1730.0
2094,1776.0
2114,1753.0
2134,1799.0
2154,1694.0
2174,1712.0
2194,1760.0
2214,1710.0
2234,1778.0
2254,1758.0
2274,1920.0
2294,1914.0
2314,1931.0
2334,1727.0
2354,1776.0
2374,1747.0
2394,1701.0
2414,2773.0
2434,2459.0
2454,1328.0
2474,1845.0
2494,1907.0
2514,1943.0
2534,1993.0
2554,2095.0
2574,2230.0
2594,2339.0
2614,2469.0
2634,2489.0
2654,2326.0
2674,2127.0
2694,1792.0
2714,1647.0
2734,1653.0
2754,1664.0
2774,1666.0
2794,1762.0
2814,1744.0
2834,1743.0
2854,1764.0
2874,1765.0
2894,1744.0
2914,1747.0
2934,1646.0
2954,1764.0
2974,1680.0
2994,1815.0
3014,1923.0
3034,1920.0
3054,1782.0
3074,1755.0
3094,1765.0
3114,1642.0
3134,2372.0
3154,2819.0
3174,1216.0
3194,1834.0
3214,1915.0
3234,1945.0
3254,1999.0
3274,2121.0
3294,2173.0
3314,2301.0
3334,2419.0
3354,2465.0
3374,2391.0
3394,2097.0
3414,1845.0
3434,1699.0
3454,1644.0
3474,1633.0
3494,1648.0
3514,1711.0
3534,1705.0
3554,1709.0
3574,1711.0
3594,1714.0
3614,1689.0
3634,1673.0
3654,1728.0
3674,1662.0
3694,1733.0
3714,1758.0
3734,1861.0
3754,1870.0
3774,1790.0
3794,1687.0
3814,1821.0
3834,1617.0
3854,1884.0
3874,3606.0
3894,1456.0
3914,1723.0
3934,1866.0
3954,1904.0
3974,2001.0
3994,2083.0
4014,2112.0
4034,2256.0
4054,2387.0
4074,2438.0
4094,2334.0
4114,2253.0
4134,1918.0
4154,1731.0
4174,1616.0
4194,1680.0
4214,1760.0
4234,1763.0
4254,1743.0
4274,1710.0
4294,1726.0
4314,1798.0
4334,1738.0
4354,1712.0
4374,1746.0
4394,1647.0
4414,1856.0
4434,1907.0
4454,1881.0
4474,1827.0
4494,1734.0
4514,1761.0
4534,1579.0
4554,2335.0
4574,2693.0
4594,1262.0
4614,1788.0
4634,1827.0
4654,1969.0
4674,2038.0
4694,2005.0
4714,2204.0
4734,2308.0
4754,2323.0
4774,2390.0
4794,2284.0
4814,2077.0
4834,1863.0
4854,1665.0
4874,1535.0
4894,1647.0
4914,1648.0
4934,1586.0
4954,1699.0
4974,1729.0
4994,1661.0
5014,1799.0
5034,1681.0
5054,1678.0
5074,1682.0
5094,1680.0
5114,1642.0
5134,1763.0
5154,1821.0
5174,1883.0
5194,1830.0
5214,1808.0
5234,1699.0
5254,1677.0
5274,1664.0
5294,2735.0
5314,2366.0
5334,1261.0
5354,1840.0
5374,1904.0
5394,1924.0
5414,2055.0
5434,2127.0
5454,2173.0
5474,2299.0
5494,2450.0
5514,2399.0
5534,2288.0
5554,1982.0
5574,1808.0
5594,1657.0
5614,1612.0
5634,1645.0
5654,1663.0
5674,1648.0
5694,1607.0
5714,1714.0
5734,1765.0
5754,1727.0
5774,1706.0
5794,1680.0
5814,1686.0
5834,1793.0
5854,1712.0
5874,1685.0
5894,1642.0
5914,1867.0
5934,1913.0
5954,1858.0
5974,1782.0
5994,1684.0
6014,1705.0
6034,1666.0
6054,2083.0
6074,3199.0
6094,1187.0
6114,1849.0
6134,1844.0
6154,1970.0
6174,2003.0
6194,2037.0
6214,2209.0
6234,2227.0
6254,2501.0
6274,2423.0
6294,2324.0
6314,2162.0
6334,1851.0
6354,1675.0
6374,1681.0
6394,1555.0
6414,1729.0
6434,1699.0
6454,1675.0
6474,1707.0
6494,1712.0
6514,1809.0
6534,1654.0
6554,1685.0
6574,1701.0
6594,1679.0
6614,1731.0
6634,1811.0
6654,1667.0
6674,1731.0
6694,1759.0
6714,1841.0
6734,1919.0
6754,1785.0
6774,1695.0
6794,1697.0
6814,1697.0
6834,1792.0
6854,3420.0
6874,1691.0
6894,1447.0
6914,1855.0
6934,1904.0
6954,1963.0
6974,1989.0
6994,2112.0
7014,2190.0
7034,2307.0
7054,2416.0
7074,2367.0
7094,2301.0
7114,1961.0
7134,1807.0
7154,1653.0
7174,1614.0
7194,1635.0
7214,1682.0
7234,1744.0
7254,1799.0
7274,1790.0
7294,1690.0
7314,1782.0
7334,1787.0
7354,1742.0
7374,1730.0
7394,1785.0
7414,1813.0
7434,1813.0
7454,1777.0
7481,1926.0
7494,1953.0
7514,1927.0
7534,1787.0
7554,1799.0
7574,1867.0
7594,1647.0
7614,2351.0
7634,2966.0
7654,1392.0
7674,1813.0
7694,1979.0
7714,1946.0
7734,2037.0
7754,2089.0
7774,2218.0
7794,2318.0
7814,2403.0
7834,2369.0
7854,2335.0
7874,2154.0
7894,1840.0
7914,1751.0
7934,1625.0
7954,1703.0
7974,1636.0
7994,1697.0
8014,1787.0
8034,1687.0
8054,1734.0
8074,1711.0
8094,1765.0
8114,1651.0
8134,1754.0
8154,1733.0
8174,1744.0
8194,1690.0
8214,1814.0
8234,1940.0
8254,1871.0
8274,1796.0
8294,1754.0
8314,1736.0
8334,1611.0
8354,2355.0
8375,2864.0
8394,1229.0
8414,1840.0
8434,1954.0
8454,1989.0
8474,2066.0
8494,2047.0
8514,2177.0
8534,2333.0
8554,2448.0
8574,2417.0
8594,2355.0
8614,2159.0
8634,1889.0
8654,1728.0
8674,1634.0
8694,1664.0
8714,1776.0
8734,1780.0
8754,1781.0
8774,1760.0
8794,1773.0
8814,1799.0
8834,1770.0
8854,1795.0
8874,1799.0
8894,1802.0
8914,1887.0
8934,1954.0
8954,1959.0
8974,1918.0
8994,1813.0
9014,1794.0
9034,1778.0
9054,1915.0
9074,3809.0
9094,1621.0
9114,1675.0
9134,1907.0
9154,1959.0
9174,1977.0
9194,2090.0
9214,2173.0
9234,2275.0
9254,2371.0
9274,2416.0
9294,2316.0
9314,2151.0
9334,1860.0
9354,1636.0
9374,1581.0
9394,1495.0
9414,1475.0
9434,1572.0
9454,1612.0
9474,1578.0
9494,1572.0
9514,1507.0
9534,1502.0
9554,1502.0
9574,1502.0
9594,1469.0
9614,1535.0
9634,1597.0
9654,1681.0
9674,1616.0
9694,1535.0
9714,1442.0
9734,1499.0
9754,1397.0
9774,2346.0
9794,2138.0
9814,1090.0
9834,1617.0
9854,1638.0
9874,1714.0
9894,1735.0
9914,1807.0
9934,1920.0
9954,2047.0
9974,2167.0
9994,2181.0
10014,2108.0
18,6467.741935483871
39,6638.709677419355
58,7151.612903225805
78,7377.419354838708
98,7687.096774193549
118,7374.193548387096
138,7261.290322580644
158,6280.645161290322
178,5648.387096774193
198,5512.903225806452
218,5258.064516129032
238,5316.129032258064
258,5606.451612903225
278,5712.903225806452
298,5667.741935483871
318,5735.4838709677415
338,5625.806451612903
360,5574.193548387097
378,5609.677419354838
398,5574.193548387097
419,5658.064516129032
438,5935.4838709677415
458,6177.419354838709
478,5935.4838709677415
498,5564.516129032258
518,5422.580645161291
538,5261.290322580645
558,5387.096774193548
578,10806.451612903224
598,5396.774193548386
618,4335.4838709677415
638,6141.935483870968
659,6035.4838709677415
679,6309.677419354839
698,6354.838709677419
718,6899.999999999999
738,7225.8064516129025
758,7367.741935483869
778,7516.129032258065
798,7445.16129032258
819,7025.806451612903
838,6183.870967741936
858,5648.387096774193
878,5338.709677419354
898,5348.387096774193
919,5522.58064516129
938,5629.032258064516
958,5729.032258064516
978,5783.870967741935
998,5835.4838709677415
1018,5751.612903225806
1038,5558.064516129032
1058,5729.032258064516
1078,5658.064516129032
1098,5903.225806451612
1118,6129.032258064515
1138,6241.935483870968
1158,6029.032258064515
1178,5838.709677419354
1198,5564.516129032258
1218,5580.645161290322
1238,5412.903225806452
1258,10548.387096774191
1278,6080.645161290322
1298,4574.193548387097
1318,6138.709677419354
1338,6367.74193548387
1358,6432.258064516129
1378,6758.064516129032
1398,7025.806451612903
1418,7087.096774193547
1438,7477.41935483871
1458,7887.096774193548
1478,7732.258064516129
1498,7190.32258064516
1518,6293.548387096775
1538,5800.0
1558,5309.677419354838
1578,5325.806451612903
1598,5506.451612903226
1618,5512.903225806452
1638,5629.032258064516
1658,5687.096774193548
1678,5580.645161290322
1698,5674.193548387097
1718,5580.645161290322
1738,5625.806451612903
1758,5680.645161290323
1778,5467.741935483871
1798,5625.806451612903
1818,5558.064516129032
1838,5696.774193548386
1858,6119.354838709677
1878,6254.83870967742
1898,6009.677419354838
1918,5835.4838709677415
1938,5529.032258064516
1958,5500.0
1978,5203.225806451613
1998,7970.967741935484
2018,8625.806451612902
2038,3841.935483870968
2058,6174.193548387097
2078,6054.83870967742
2098,6364.516129032258
2118,6409.677419354838
2138,6761.290322580645
2158,6916.129032258064
2178,7277.419354838708
2198,7596.774193548387
2218,7432.25806451613
2238,7348.387096774193
2258,6596.774193548387
2278,5654.838709677419
2298,5232.258064516128
2318,5222.58064516129
2338,5316.129032258064
2358,5583.870967741936
2378,5632.258064516129
2398,5419.354838709677
2418,5622.58064516129
2438,5583.870967741936
2458,5506.451612903226
2478,5567.74193548387
2498,5554.83870967742
2518,5467.741935483871
2538,5616.129032258064
2558,5674.193548387097
2578,5764.5161290322585
2598,5864.516129032258
2618,6151.612903225806
2638,6203.225806451613
2658,6122.58064516129
2678,5796.774193548387
2698,5641.935483870968
2718,5616.129032258064
2738,5729.032258064516
2758,11196.774193548388
2778,5551.612903225807
2798,5029.032258064515
2818,6393.548387096775
2838,6522.58064516129
2858,6500.0
2878,6738.709677419354
2898,7119.354838709676
2918,7461.290322580646
2938,7590.322580645162
2958,7812.903225806451
2978,7774.193548387097
2998,7345.16129032258
3018,6396.774193548386
3038,5706.451612903225
3058,5416.129032258064
3078,5496.774193548387
3098,5538.709677419355
3118,5522.58064516129
3138,5874.193548387097
3158,5861.290322580645
3178,5851.612903225807
3198,5670.967741935484
3218,5641.935483870968
3238,5745.1612903225805
3258,5661.290322580645
3278,5780.645161290322
3298,5783.870967741935
3318,6041.935483870967
3338,6329.032258064516
3358,6070.967741935483
3378,5964.516129032258
3398,5758.064516129032
3418,5625.806451612903
3438,5325.806451612903
3458,6716.129032258064
3478,9903.225806451612
3498,4387.096774193548
3518,5519.354838709678
3538,6245.1612903225805
3558,6245.1612903225805
3578,6554.83870967742
3598,6651.612903225806
3618,6896.774193548386
3638,7416.129032258063
3658,7587.096774193548
3678,7512.903225806452
3698,7409.677419354837
3718,6780.645161290322
3738,5951.612903225806
3758,5619.354838709677
3778,5216.129032258064
3798,5283.870967741935
3818,5464.5161290322585
3838,5525.806451612903
3858,5632.258064516129
3878,5648.387096774193
3898,5551.612903225807
3918,5490.322580645161
3938,5483.870967741935
3958,5629.032258064516
3978,5593.548387096775
3998,5835.4838709677415
4018,6177.419354838709
4038,6235.4838709677415
4058,5951.612903225806
4078,5467.741935483871
4098,5500.0
4118,5522.58064516129
4138,5480.645161290322
4158,12564.516129032258
4178,4561.290322580646
4198,5132.258064516129
4218,6029.032258064515
4238,6141.935483870968
4258,6274.193548387097
4278,6500.0
4298,6783.870967741935
4318,7145.1612903225805
4338,7429.032258064517
4358,7667.741935483871
4378,7493.548387096775
4398,6819.354838709676
4418,6045.1612903225805
4438,5306.451612903225
4458,5141.935483870968
4478,5116.129032258064
4498,5312.903225806451
4518,5261.290322580645
4538,5332.258064516129
4558,5541.935483870968
4578,5551.612903225807
4598,5506.451612903226
4618,5354.838709677419
4638,5477.41935483871
4658,5345.1612903225805
4678,5700.0
4698,5503.225806451613
4718,5983.870967741935
4738,5932.258064516129
4758,5770.967741935484
4778,5493.548387096774
4798,5316.129032258064
4818,5370.967741935484
4838,5435.483870967742
4858,10809.67741935484
4878,5370.967741935484
4898,4583.870967741936
4918,5841.935483870968
4938,5974.193548387097
4958,6251.612903225807
4978,6325.806451612903
4998,6761.290322580645
5018,6951.612903225806
5038,7370.967741935483
5058,7435.483870967742
5078,7445.16129032258
5098,6919.354838709677
5118,6183.870967741936
5138,5377.41935483871
5158,5087.096774193548
5178,5025.806451612903
5198,5270.967741935484
5218,5277.419354838708
5238,5512.903225806452
5258,5487.096774193548
5278,5493.548387096774
5298,5493.548387096774
5318,5383.870967741936
5339,5503.225806451613
5358,5451.612903225806
5378,5454.83870967742
5398,5467.741935483871
5418,5954.838709677419
5438,6216.129032258064
5459,5993.548387096774
5478,5864.516129032258
5498,5564.516129032258
5518,5477.41935483871
5538,5125.806451612903
5558,7241.935483870967
5578,9519.354838709678
5598,3961.290322580645
5618,5987.096774193547
5638,6154.838709677419
5658,6338.709677419355
5679,6493.548387096774
5699,6687.096774193548
5718,7064.516129032257
5738,7322.580645161289
5758,7764.516129032258
5778,7603.225806451614
5799,7380.645161290322
5818,6603.225806451613
5838,5903.225806451612
5858,5503.225806451613
5878,5212.903225806451
5898,5380.645161290323
5918,5522.58064516129
5938,5616.129032258064
5958,5829.032258064516
5979,5896.774193548386
5998,5719.354838709677
6018,5464.5161290322585
6038,5667.741935483871
6058,5525.806451612903
6078,5761.290322580645
6098,6158.064516129031
6118,6367.74193548387
6138,5903.225806451612
6158,5558.064516129032
6179,5667.741935483871
6199,5474.1935483870975
6218,5867.74193548387
6238,12135.48387096774
6258,4945.1612903225805
6278,5051.612903225806
6299,6319.354838709677
6318,6248.387096774193
6338,6454.83870967742
6358,6690.32258064516
6379,6864.516129032258
6398,7348.387096774193
6418,7529.032258064516
6438,7738.709677419354
6458,7532.258064516129
6478,6980.645161290321
6498,6190.322580645161
6518,5525.806451612903
6538,5422.580645161291
6558,5435.483870967742
6579,5522.58064516129
6599,5580.645161290322
6618,5751.612903225806
6638,5822.58064516129
6658,5696.774193548386
6679,5625.806451612903
6699,5558.064516129032
6718,5712.903225806452
6738,5680.645161290323
6758,6045.1612903225805
6778,6358.064516129032
6798,6193.548387096774
6818,5864.516129032258
6838,5580.645161290322
6858,5480.645161290322
6879,5170.967741935484
6899,6190.322580645161
6918,12267.74193548387
6938,3719.3548387096776
6958,5625.806451612903
6980,6141.935483870968
6999,6193.548387096774
7018,6435.483870967742
7038,6561.290322580645
7058,6829.032258064515
7079,7264.516129032258
7098,7619.354838709677
7118,7670.967741935484
7138,7380.645161290322
7158,6783.870967741935
7178,5874.193548387097
7199,5387.096774193548
7218,5377.41935483871
7238,5248.387096774193
7258,5474.1935483870975
7279,5593.548387096775
7298,5719.354838709677
7318,5625.806451612903
7338,5532.258064516129
7358,5580.645161290322
7379,5570.967741935484
7399,5622.58064516129
7418,5474.1935483870975
7438,5603.225806451614
7458,5916.129032258064
7478,6341.935483870968
7498,6067.74193548387
7518,5745.1612903225805
7538,5554.83870967742
7558,5361.290322580644
7578,5090.322580645161
7598,7099.999999999999
7619,9790.32258064516
7638,3616.129032258064
7658,6019.354838709677
7679,6187.096774193548
7699,6319.354838709677
7718,6383.870967741936
7739,6629.032258064516
7759,7016.129032258064
7779,7325.806451612902
7799,7629.032258064516
7818,7609.677419354838
7839,7274.193548387096
7859,6625.806451612903
7879,5822.58064516129
7899,5306.451612903225
7918,5287.096774193547
7939,5316.129032258064
7958,5393.548387096775
7979,5564.516129032258
7999,5629.032258064516
8019,5587.096774193548
8039,5587.096774193548
8059,5609.677419354838
8079,5590.322580645161
8099,5667.741935483871
8118,5709.677419354838
8139,6080.645161290322
8158,6200.0
8178,6196.774193548387
8199,5796.774193548387
8218,5574.193548387097
8238,5467.741935483871
8258,5267.741935483871
8278,7848.387096774194
8298,8567.74193548387
8318,4038.709677419354
8338,5938.709677419354
8358,6238.709677419354
8378,6587.096774193548
8400,6596.774193548387
8418,6761.290322580645
8438,7119.354838709676
8458,7390.32258064516
8478,7738.709677419354
8498,7722.580645161291
8518,7432.25806451613
8538,6654.838709677419
8558,5893.548387096775
8578,5716.129032258064
8598,5370.967741935484
8618,5535.4838709677415
8638,5632.258064516129
8658,5674.193548387097
8678,5758.064516129032
8711,5822.58064516129
8718,5729.032258064516
8738,5690.322580645161
8758,5780.645161290322
8778,5983.870967741935
8798,6141.935483870968
8818,5996.774193548386
8838,5764.5161290322585
8858,5577.419354838709
8878,5500.0
8898,5132.258064516129
8918,6280.645161290322
8938,10541.935483870968
8958,4490.32258064516
8978,5125.806451612903
8999,5899.999999999999
9018,6106.4516129032245
9038,6312.903225806451
9058,6493.548387096774
9078,6967.74193548387
9098,6999.999999999999
9118,7416.129032258063
9138,7419.354838709676
9158,7329.032258064515
9178,6674.193548387097
9198,5893.548387096775
9218,5400.0
9238,5464.5161290322585
9258,5377.41935483871
9278,5483.870967741935
9298,5429.032258064516
9318,5732.258064516129
9338,5629.032258064516
9358,5732.258064516129
9378,5632.258064516129
9399,5625.806451612903
9419,5935.4838709677415
9438,6312.903225806451
9458,6164.516129032258
9478,5825.806451612903
9498,5590.322580645161
9518,5551.612903225807
9538,5151.612903225806
9558,6729.032258064516
9578,11303.225806451612
9598,4006.4516129032254
9618,5803.225806451613
9638,6245.1612903225805
9658,6416.129032258064
9678,6551.612903225807
9698,6748.387096774193
9718,6967.74193548387
9738,7445.16129032258
9758,7725.806451612903
9778,7770.967741935484
9798,7474.1935483870975
9818,6764.516129032258
9838,5987.096774193547
9858,5500.0
9878,5525.806451612903
9898,5590.322580645161
9918,5541.935483870968
9938,5825.806451612903
9958,5732.258064516129
9979,5835.4838709677415
9998,5729.032258064516
10018,5996.774193548386
18,2006.0
38,1813.0
58,1714.0
78,1769.0
98,1774.0
118,1803.0
138,1819.0
158,1840.0
178,1879.0
197,1789.0
218,1827.0
238,1818.0
258,1810.0
278,1791.0
298,1798.0
318,1837.0
338,1904.0
358,2032.0
378,1925.0
398,1836.0
418,1782.0
438,1762.0
458,1721.0
478,2819.0
499,2335.0
518,1334.0
538,1904.0
558,1931.0
578,1969.0
598,2055.0
618,2119.0
638,2191.0
658,2298.0
678,2413.0
698,2405.0
718,2273.0
738,2015.0
758,1744.0
778,1599.0
798,1591.0
818,1605.0
838,1600.0
858,1680.0
878,1699.0
898,1685.0
918,1687.0
938,1663.0
958,1642.0
978,1667.0
998,1662.0
1018,1679.0
1038,1681.0
1058,1772.0
1078,1825.0
1097,1826.0
1117,1782.0
1138,1709.0
1157,1683.0
1178,1674.0
1198,1756.0
1217,3600.0
1238,1465.0
1257,1518.0
1277,1872.0
1297,1904.0
1317,1961.0
1338,1989.0
1357,2112.0
1378,2223.0
1398,2303.0
1418,2400.0
1438,2378.0
1458,2193.0
1478,1919.0
1497,1703.0
1518,1619.0
1538,1583.0
1558,1664.0
1578,1655.0
1597,1719.0
1617,1717.0
1637,1744.0
1658,1685.0
1678,1713.0
1698,1729.0
1717,1694.0
1738,1727.0
1758,1712.0
1778,1748.0
1798,1856.0
1818,1921.0
1838,1876.0
1858,1815.0
1878,1744.0
1898,1755.0
1917,1634.0
1937,2256.0
1957,2938.0
1978,1256.0
1998,1844.0
2018,1936.0
2038,1955.0
2058,2035.0
2078,2102.0
2098,2191.0
2118,2289.0
2138,2402.0
2158,2448.0
2178,2303.0
2198,2109.0
2218,1850.0
2238,1677.0
2258,1655.0
2278,1632.0
2298,1691.0
2318,1713.0
2338,1776.0
2357,1751.0
2378,1741.0
2398,1738.0
2418,1735.0
2438,1724.0
2458,1722.0
2477,1740.0
2498,1793.0
2518,1851.0
2538,1903.0
2558,1856.0
2578,1760.0
2598,1728.0
2617,1726.0
2638,1721.0
2658,3175.0
2678,1924.0
2697,1391.0
2717,1856.0
2738,1921.0
2757,1942.0
2778,2047.0
2798,2096.0
2818,2242.0
2838,2287.0
2858,2416.0
2878,2399.0
2898,2218.0
2918,2006.0
2938,1761.0
2958,1699.0
2978,1662.0
2998,1709.0
3017,1745.0
3037,1749.0
3058,1762.0
3078,1800.0
3098,1741.0
3117,1760.0
3138,1782.0
3158,1828.0
3178,1863.0
3198,1946.0
3218,1879.0
3238,1787.0
3258,1733.0
3278,1739.0
3298,1808.0
3318,3163.0
3338,2086.0
3358,1136.0
3378,2012.0
3398,1849.0
3418,1974.0
3438,1949.0
3458,2071.0
3478,2178.0
3498,2390.0
3517,2384.0
3538,2419.0
3558,2263.0
3578,1930.0
3598,1623.0
3618,1627.0
3638,1625.0
3659,1648.0
3678,1744.0
3698,1770.0
3728,1705.0
3737,1731.0
3758,1886.0
3778,1572.0
3798,1785.0
3818,1755.0
3838,1731.0
3858,1971.0
3878,1821.0
3898,1775.0
3918,1726.0
3938,1631.0
3958,1678.0
3977,2426.0
3998,2447.0
4018,1200.0
4038,1883.0
4058,1937.0
4078,1931.0
4098,2145.0
4118,2197.0
4137,2255.0
4158,2228.0
4178,2512.0
4198,2474.0
4218,2293.0
4238,1970.0
4258,1808.0
4278,1591.0
4298,1601.0
4318,1648.0
4338,1659.0
4357,1757.0
4378,1741.0
4398,1793.0
4418,1527.0
4438,1696.0
4458,1666.0
4478,1789.0
4498,1761.0
4518,1827.0
4538,1775.0
4557,1779.0
4578,1584.0
4598,1527.0
4618,1861.0
4638,3344.0
4658,1298.0
4678,1616.0
4698,1822.0
4718,1925.0
4738,1956.0
4758,2017.0
4778,2167.0
4798,2256.0
4818,2275.0
4838,2343.0
4858,2279.0
4878,2119.0
4898,1837.0
4918,1678.0
4938,1620.0
4958,1520.0
4978,1646.0
4998,1747.0
5018,1771.0
5038,1639.0
5058,1750.0
5078,1697.0
5098,1803.0
5117,1807.0
5138,1893.0
5158,1791.0
5178,1638.0
5198,1584.0
5218,1648.0
5238,1685.0
5258,2882.0
5278,1922.0
5298,1195.0
5318,1806.0
5338,1870.0
5358,1951.0
5378,1937.0
5398,2018.0
5418,2170.0
5438,2337.0
5458,2270.0
5478,2342.0
5498,2142.0
5518,1937.0
5538,1758.0
5558,1629.0
5578,1603.0
5598,1621.0
5618,1655.0
5638,1730.0
5658,1765.0
5678,1667.0
5698,1722.0
5718,1773.0
5738,1762.0
5758,1919.0
5778,1808.0
5798,1733.0
5818,1641.0
5838,1715.0
5858,1642.0
5878,2210.0
5898,2757.0
5918,1258.0
5938,1805.0
5958,1940.0
5978,1963.0
5998,1983.0
6018,2103.0
6038,2226.0
6058,2320.0
6078,2363.0
6098,2409.0
6118,2327.0
6138,1987.0
6158,1793.0
6178,1663.0
6198,1666.0
6218,1635.0
6238,1734.0
6258,1682.0
6278,1719.0
6298,1754.0
6318,1690.0
6338,1776.0
6358,1670.0
6378,1773.0
6398,1738.0
6418,1845.0
6438,1741.0
6458,1936.0
6478,1863.0
6498,1884.0
6518,1777.0
6538,1666.0
6558,1623.0
6578,2196.0
6598,3135.0
6618,1268.0
6638,1775.0
6658,1899.0
6678,1991.0
6698,1985.0
6718,2113.0
6738,2179.0
6758,2286.0
6778,2411.0
6798,2448.0
6818,2435.0
6838,2109.0
6858,1809.0
6878,1737.0
6897,1572.0
6918,1573.0
6938,1647.0
6958,1719.0
6978,1791.0
6998,1718.0
7018,1755.0
7037,1810.0
7058,1680.0
7078,1690.0
7097,1695.0
7118,1693.0
7138,1673.0
7158,1776.0
7178,1841.0
7198,1853.0
7218,1843.0
7238,1857.0
7258,1680.0
7278,1709.0
7298,1646.0
7318,2032.0
7338,3438.0
7358,1264.0
7378,1726.0
7398,1915.0
7418,1950.0
7438,1971.0
7458,2063.0
7478,2160.0
7498,2220.0
7518,2316.0
7538,2476.0
7558,2320.0
7578,2063.0
7598,1883.0
7618,1673.0
7638,1614.0
7658,1569.0
7678,1606.0
7698,1648.0
7718,1712.0
7738,1673.0
7758,1750.0
7777,1717.0
7798,1684.0
7818,1622.0
7838,1630.0
7858,1728.0
7878,1709.0
7897,1687.0
7918,1770.0
7938,1821.0
7958,1839.0
7978,1856.0
7998,1797.0
8018,1601.0
8038,1719.0
8058,1648.0
8078,2256.0
8098,2930.0
8118,1298.0
8138,1797.0
8158,1846.0
8178,1925.0
8198,1986.0
8218,2023.0
8238,2146.0
8258,2214.0
8278,2435.0
8298,2404.0
8318,2374.0
8338,2176.0
8358,1707.0
8378,1699.0
8398,1565.0
8418,1648.0
8438,1587.0
8458,1660.0
8478,1714.0
8498,1750.0
8518,1735.0
8538,1709.0
8558,1712.0
8578,1652.0
8598,1699.0
8618,1730.0
8638,1712.0
8658,1790.0
8678,1859.0
8698,1837.0
8718,1715.0
8738,1693.0
8758,1747.0
8778,1643.0
8798,2434.0
8818,2496.0
8838,1279.0
8858,1775.0
8878,1779.0
8898,2006.0
8918,2030.0
8938,2115.0
8958,2150.0
8978,2327.0
8998,2381.0
9018,2335.0
9039,2352.0
9058,2064.0
9078,1843.0
9098,1666.0
9118,1610.0
9138,1663.0
9158,1659.0
9178,1755.0
9198,1725.0
9218,1709.0
9238,1735.0
9258,1718.0
9278,1755.0
9298,1703.0
9318,1707.0
9340,1827.0
9358,1662.0
9378,1718.0
9398,1776.0
9418,1955.0
9438,1814.0
9458,1875.0
9478,1869.0
9498,1728.0
9518,1749.0
9538,1734.0
9558,2768.0
9578,2489.0
9598,1343.0
9618,1887.0
9638,1919.0
9658,1936.0
9678,2019.0
9698,2109.0
9718,2190.0
9738,2378.0
9759,2448.0
9778,2464.0
9799,2363.0
9818,2031.0
9838,1850.0
9858,1616.0
9878,1595.0
9898,1600.0
9918,1620.0
9938,1715.0
9958,1699.0
9978,1757.0
9998,1733.0
10018,1670.0
17,1787.0
37,1765.0
57,1769.0
77,1756.0
97,1727.0
117,1777.0
137,1723.0
157,1757.0
177,1715.0
197,1749.0
217,1849.0
237,1856.0
257,1941.0
277,1855.0
297,1751.0
317,1756.0
337,1702.0
357,1617.0
377,3002.0
397,1979.0
417,1374.0
437,1851.0
457,1866.0
477,1917.0
497,1971.0
517,2031.0
537,2128.0
557,2211.0
577,2283.0
597,2174.0
617,2056.0
637,1835.0
657,1671.0
677,1535.0
697,1589.0
717,1593.0
737,1654.0
757,1730.0
777,1635.0
797,1691.0
817,1652.0
837,1701.0
857,1648.0
877,1646.0
897,1650.0
917,1666.0
937,1617.0
957,1680.0
977,1835.0
997,1844.0
1017,1813.0
1037,1700.0
1057,1712.0
1077,1671.0
1097,1562.0
1117,2701.0
1137,2207.0
1157,1258.0
1177,1839.0
1197,1894.0
1217,1949.0
1237,1980.0
1257,2054.0
1277,2154.0
1297,2255.0
1317,2303.0
1337,2271.0
1357,2150.0
1377,1943.0
1397,1750.0
1417,1630.0
1437,1621.0
1457,1675.0
1477,1749.0
1497,1729.0
1517,1763.0
1537,1762.0
1557,1734.0
1577,1715.0
1597,1721.0
1617,1735.0
1637,1738.0
1657,1734.0
1677,1744.0
1697,1893.0
1717,1949.0
1737,1869.0
1757,1825.0
1777,1750.0
1797,1758.0
1817,1575.0
1837,2510.0
1857,2554.0
1877,1234.0
1897,1887.0
1917,1906.0
1937,1969.0
1957,2004.0
1977,2080.0
1997,2197.0
2017,2297.0
2037,2343.0
2057,2306.0
2077,2171.0
2097,1968.0
2117,1774.0
2137,1708.0
2157,1682.0
2177,1680.0
2197,1713.0
2217,1796.0
2237,1763.0
2257,1792.0
2277,1701.0
2297,1740.0
2317,1769.0
2337,1738.0
2357,1712.0
2377,1872.0
2397,1939.0
2417,1930.0
2437,1801.0
2457,1731.0
2477,1731.0
2497,1619.0
2517,1818.0
2537,3555.0
2557,1443.0
2577,1662.0
2597,1890.0
2617,1954.0
2637,2015.0
2657,2093.0
2677,2167.0
2697,2217.0
2717,2321.0
2737,2352.0
2757,2224.0
2777,2074.0
2797,1859.0
2817,1689.0
2837,1728.0
2857,1744.0
2877,1795.0
2897,1758.0
2917,1777.0
2937,1792.0
2957,1797.0
2977,1743.0
2997,1787.0
3017,1747.0
3037,1762.0
3057,1808.0
3077,1855.0
3097,1947.0
3117,1963.0
3137,1825.0
3157,1727.0
3177,1697.0
3197,1647.0
3217,1878.0
3237,3771.0
3257,1145.0
3277,1763.0
3297,1893.0
3317,1904.0
3337,1969.0
3357,2026.0
3377,2171.0
3397,2193.0
3417,2298.0
3437,2327.0
3457,2209.0
3477,1971.0
3497,1777.0
3517,1667.0
3537,1571.0
3557,1647.0
3577,1642.0
3597,1727.0
3617,1753.0
3637,1733.0
3657,1686.0
3677,1692.0
3697,1708.0
3717,1695.0
3737,1689.0
3757,1825.0
3777,1925.0
3797,1814.0
3817,1730.0
3837,1648.0
3857,1677.0
3877,1535.0
3897,2559.0
3917,2348.0
3937,1183.0
3957,1874.0
3977,1854.0
3997,1917.0
4017,1989.0
4037,2064.0
4057,2131.0
4077,2271.0
4097,2346.0
4117,2284.0
4137,2116.0
4157,1905.0
4177,1717.0
4197,1622.0
4217,1626.0
4237,1653.0
4257,1694.0
4277,1766.0
4297,1731.0
4317,1749.0
4337,1724.0
4357,1726.0
4377,1749.0
4397,1718.0
4417,1733.0
4437,1882.0
4457,1939.0
4477,1877.0
4497,1744.0
4517,1730.0
4537,1693.0
4557,1602.0
4577,2918.0
4597,2071.0
4617,1316.0
4637,1928.0
4657,1911.0
4677,1969.0
4697,2076.0
4717,2107.0
4737,2219.0
4757,2263.0
4777,2340.0
4797,2271.0
4817,2190.0
4837,1975.0
4857,1770.0
4877,1722.0
4897,1722.0
4917,1710.0
4937,1777.0
4957,1763.0
4977,1770.0
4997,1773.0
5017,1763.0
5037,1744.0
5057,1755.0
5077,1815.0
5097,1918.0
5117,2003.0
5137,1753.0
5157,1701.0
5177,1712.0
5197,1600.0
5217,1952.0
5237,3277.0
5257,1296.0
5277,1774.0
5297,1883.0
5317,1934.0
5337,1955.0
5357,2087.0
5377,2154.0
5397,2241.0
5417,2290.0
5437,2304.0
5457,2206.0
5477,2081.0
5497,1778.0
5517,1739.0
5537,1706.0
5557,1737.0
5577,1759.0
5597,1810.0
5617,1823.0
5637,1777.0
5657,1786.0
5677,1790.0
5697,1757.0
5729,1750.0
5737,1794.0
5757,1874.0
5777,1989.0
5797,1857.0
5817,1734.0
5837,1681.0
5857,1698.0
5877,1600.0
5897,3145.0
5917,1808.0
5937,1362.0
5957,1857.0
5977,1902.0
5997,1907.0
6017,2001.0
6037,2073.0
6057,2178.0
6077,2278.0
6097,2267.0
6117,2256.0
6137,2097.0
6157,1872.0
6177,1693.0
6197,1638.0
6217,1595.0
6237,1680.0
6257,1737.0
6277,1744.0
6297,1707.0
6317,1771.0
6337,1715.0
6357,1728.0
6377,1712.0
6397,1680.0
6417,1716.0
6437,1776.0
6457,1845.0
6477,1926.0
6497,1840.0
6517,1750.0
6537,1712.0
6557,1661.0
6577,1653.0
6597,3337.0
6617,1712.0
6637,1438.0
6657,1910.0
6677,1910.0
6697,1949.0
6717,2025.0
6737,2130.0
6757,2238.0
6777,2274.0
6797,2303.0
6817,2261.0
6837,2148.0
6857,1899.0
6877,1712.0
6897,1636.0
6917,1663.0
6937,1744.0
6957,1733.0
6977,1712.0
6997,1771.0
7017,1787.0
7037,1748.0
7057,1698.0
7077,1713.0
7097,1759.0
7117,1723.0
7137,1777.0
7157,1869.0
7177,1978.0
7197,1851.0
7217,1759.0
7237,1723.0
7257,1741.0
7277,1697.0
7297,3115.0
7317,1939.0
7337,1407.0
7357,1936.0
7377,1929.0
7397,2002.0
7417,2059.0
7437,2147.0
7457,2193.0
7477,2293.0
7497,2351.0
7517,2245.0
7537,2153.0
7557,1927.0
7577,1735.0
7597,1711.0
7617,1673.0
7637,1699.0
7657,1739.0
7677,1806.0
7697,1767.0
7717,1776.0
7737,1762.0
7757,1717.0
7777,1759.0
7797,1744.0
7817,1750.0
7837,1744.0
7857,1858.0
7877,1968.0
7897,1904.0
7917,1826.0
7937,1749.0
7957,1747.0
7977,1591.0
7997,2342.0
8017,2719.0
8037,1255.0
8057,1861.0
8077,1905.0
8097,1999.0
8117,2043.0
8137,2079.0
8157,2156.0
8177,2285.0
8197,2349.0
8217,2323.0
8237,2177.0
8257,1964.0
8277,1783.0
8297,1664.0
8317,1712.0
8337,1676.0
8357,1730.0
8377,1776.0
8397,1744.0
8417,1785.0
8437,1731.0
8457,1742.0
8477,1748.0
8497,1729.0
8517,1813.0
8537,1891.0
8557,1935.0
8577,1771.0
8597,1679.0
8617,1680.0
8637,1616.0
8657,1766.0
8677,3522.0
8697,1392.0
8717,1585.0
8737,1840.0
8757,1907.0
8777,1911.0
8797,2046.0
8817,2114.0
8837,2176.0
8857,2282.0
8877,2287.0
8897,2211.0
8917,1987.0
8937,1803.0
8957,1683.0
8977,1690.0
8997,1648.0
9017,1710.0
9037,1726.0
9057,1779.0
9077,1777.0
9097,1747.0
9117,1743.0
9137,1722.0
9157,1717.0
9177,1723.0
9197,1830.0
9217,1942.0
9237,1905.0
9257,1835.0
9277,1728.0
9297,1697.0
9317,1622.0
9337,1793.0
9357,3999.0
9377,1154.0
9397,1746.0
9417,1890.0
9437,1936.0
9457,2001.0
9477,2057.0
9497,2120.0
9517,2223.0
9537,2314.0
9557,2354.0
9577,2246.0
9597,2066.0
9617,1821.0
9637,1676.0
9657,1615.0
9677,1660.0
9697,1691.0
9717,1710.0
9737,1742.0
9757,1791.0
9777,1776.0
9797,1694.0
9817,1755.0
9837,1728.0
9857,1739.0
9877,1733.0
9897,1921.0
9917,1959.0
9937,1910.0
9957,1871.0
9977,1733.0
9997,1735.0
10017,1618.0
