timestamp_ms,ecg_value
18,2251.0
38,2315.0
59,2305.0
78,2224.0
98,2000.0
118,1830.0
138,1687.0
158,1649.0
178,1677.0
198,1712.0
218,1761.0
238,1776.0
259,1745.0
278,1749.0
298,1699.0
318,1717.0
338,1712.0
358,1715.0
378,1717.0
398,1798.0
418,1859.0
438,1942.0
458,1802.0
478,1751.0
498,1712.0
518,1665.0
538,1712.0
558,3925.0
578,1398.0
598,1600.0
618,1888.0
639,1938.0
659,1985.0
678,2039.0
698,2151.0
718,2205.0
738,2294.0
769,2301.0
778,2281.0
798,2140.0
818,1943.0
839,1728.0
859,1663.0
878,1667.0
898,1712.0
918,1744.0
939,1734.0
959,1776.0
979,1749.0
999,1763.0
1018,1722.0
1038,1701.0
1059,1712.0
1079,1726.0
1099,1742.0
1118,1852.0
1139,1957.0
1159,1885.0
1179,1802.0
1199,1728.0
1218,1722.0
1239,1622.0
1259,2642.0
1278,2401.0
1298,1232.0
1318,1885.0
1339,1930.0
1359,1948.0
1379,2013.0
1399,2110.0
1419,2173.0
1439,2243.0
1458,2301.0
1479,2304.0
1498,2165.0
1518,1995.0
1539,1825.0
1559,1713.0
1579,1695.0
1599,1670.0
1618,1742.0
1638,1792.0
1659,1766.0
1679,1770.0
1699,1747.0
1719,1735.0
1740,1757.0
1759,1758.0
1778,1847.0
1798,1885.0
1818,1876.0
1839,1771.0
1859,1701.0
1879,1682.0
1899,1535.0
1919,2417.0
1939,2512.0
1959,1256.0
1979,1767.0
1998,1879.0
2019,1894.0
2039,1953.0
2059,2064.0
2078,2178.0
2098,2249.0
2119,2289.0
2139,2279.0
2159,2176.0
2179,1989.0
2199,1789.0
2218,1698.0
2238,1661.0
2258,1738.0
2278,1742.0
2298,1773.0
2318,1793.0
2338,1806.0
2358,1783.0
2378,1745.0
2398,1771.0
2418,1779.0
2438,1872.0
2458,1995.0
2479,1896.0
2498,1847.0
2518,1699.0
2541,1683.0
2558,1584.0
2578,2401.0
2598,2861.0
2618,1162.0
2639,1877.0
2658,1937.0
2678,1966.0
2698,2021.0
2718,2094.0
2738,2189.0
2758,2297.0
2778,2363.0
2798,2338.0
2818,2259.0
2838,2027.0
2858,1789.0
2878,1723.0
2898,1674.0
2918,1712.0
2938,1703.0
2959,1764.0
2978,1762.0
2998,1774.0
3018,1791.0
3038,1718.0
3060,1698.0
3079,1867.0
3098,1927.0
3119,1938.0
3139,1824.0
3159,1712.0
3179,1663.0
3198,1646.0
3219,1950.0
3238,3681.0
3259,1111.0
3278,1805.0
3298,1909.0
3318,1904.0
3340,1972.0
3359,2043.0
3379,2159.0
3399,2243.0
3419,2322.0
3439,2309.0
3459,2240.0
3479,2043.0
3499,1821.0
3518,1674.0
3539,1625.0
3559,1645.0
3578,1687.0
3598,1749.0
3618,1755.0
3639,1728.0
3659,1761.0
3679,1748.0
3699,1737.0
3718,1811.0
3740,1911.0
3759,1951.0
3779,1840.0
3798,1745.0
3819,1745.0
3840,1690.0
3859,1781.0
3879,3888.0
3899,1360.0
3918,1625.0
3939,1930.0
3959,1984.0
3979,2013.0
3998,2075.0
4018,2191.0
4038,2247.0
4059,2407.0
4078,2406.0
4098,2363.0
4119,2161.0
4139,1915.0
4159,1781.0
4178,1725.0
4198,1738.0
4218,1743.0
4239,1810.0
4259,1802.0
4279,1835.0
4299,1802.0
4319,1788.0
4339,1807.0
4359,1882.0
4379,1970.0
4399,1903.0
4419,1807.0
4439,1744.0
4459,1709.0
4479,1567.0
4499,2432.0
4519,2608.0
4538,1219.0
4559,1866.0
4579,1903.0
4599,1946.0
4619,1995.0
4639,2064.0
4659,2151.0
4678,2295.0
4699,2324.0
4719,2304.0
4739,2192.0
4759,1957.0
4779,1802.0
4798,1654.0
4819,1664.0
4839,1695.0
4859,1712.0
4879,1725.0
4899,1713.0
4919,1725.0
4939,1763.0
4959,1777.0
4979,1809.0
4999,1887.0
5019,1818.0
5038,1714.0
5059,1625.0
5079,1610.0
5099,1566.0
5119,2899.0
5139,1974.0
5159,1216.0
5179,1776.0
5199,1829.0
5219,1871.0
5238,1936.0
5258,2061.0
5278,2128.0
5298,2234.0
5318,2270.0
5339,2199.0
5359,2047.0
5379,1825.0
5398,1693.0
5419,1632.0
5439,1647.0
5459,1662.0
5479,1683.0
5499,1718.0
5519,1726.0
5539,1741.0
5559,1714.0
5579,1712.0
5599,1688.0
5619,1699.0
5639,1808.0
5660,1920.0
5679,1815.0
5699,1745.0
5718,1625.0
5739,1678.0
5759,1571.0
5779,2525.0
5799,2544.0
5818,1158.0
5839,1841.0
5859,1883.0
5879,1923.0
5899,1978.0
5919,2061.0
5938,2142.0
5959,2251.0
5978,2313.0
5999,2290.0
6019,2159.0
6039,1927.0
6059,1744.0
6079,1646.0
6099,1611.0
6119,1659.0
6139,1670.0
6159,1716.0
6179,1748.0
6199,1729.0
6219,1723.0
6240,1699.0
6259,1680.0
6279,1703.0
6299,1654.0
6319,1695.0
6338,1856.0
6359,1915.0
6379,1878.0
6399,1749.0
6419,1680.0
6439,1676.0
6459,1585.0
6479,2352.0
6499,2866.0
6519,1136.0
6539,1847.0
6559,1884.0
6579,1923.0
6599,1971.0
6619,2083.0
6639,2183.0
6659,2260.0
6679,2324.0
6699,2321.0
6719,2199.0
6739,2013.0
6759,1718.0
6778,1659.0
6798,1609.0
6818,1621.0
6839,1673.0
6859,1712.0
6879,1753.0
6898,1706.0
6919,1713.0
6939,1691.0
6959,1710.0
6979,1690.0
6999,1712.0
7018,1707.0
7038,1691.0
7059,1744.0
7078,1851.0
7098,1939.0
7119,1866.0
7139,1771.0
7159,1705.0
7178,1734.0
7199,1638.0
7218,2781.0
7240,2305.0
7258,1281.0
7278,1890.0
7298,1895.0
7318,1968.0
7338,2032.0
7358,2126.0
7378,2178.0
7398,2283.0
7418,2372.0
7439,2352.0
7459,2213.0
7478,1968.0
7498,1788.0
7518,1678.0
7538,1663.0
7558,1661.0
7578,1709.0
7598,1767.0
7618,1781.0
7638,1750.0
7658,1759.0
7678,1730.0
7698,1712.0
7718,1706.0
7738,1711.0
7758,1727.0
7778,1719.0
7798,1782.0
7818,1875.0
7838,1941.0
7858,1853.0
7879,1726.0
7899,1714.0
7918,1707.0
7938,1701.0
7958,3600.0
7978,1595.0
7998,1407.0
8018,1869.0
8038,1874.0
8058,1965.0
8078,2066.0
8098,2127.0
8118,2197.0
8138,2288.0
8158,2320.0
8178,2288.0
8198,2096.0
8218,1890.0
8238,1730.0
8258,1623.0
8278,1674.0
8298,1699.0
8318,1712.0
8338,1750.0
8359,1774.0
8379,1783.0
8398,1750.0
8418,1757.0
8439,1761.0
8458,1701.0
8479,1745.0
8498,1758.0
8518,1743.0
8538,1805.0
8558,1919.0
8579,1996.0
8598,1887.0
8618,1793.0
8639,1744.0
8659,1744.0
8679,1651.0
8698,3190.0
8719,2003.0
8739,1369.0
8759,1927.0
8779,1945.0
8799,1967.0
8818,2066.0
8838,2128.0
8859,2198.0
8878,2318.0
8898,2383.0
8919,2346.0
8939,2224.0
8959,2002.0
8979,1787.0
8999,1648.0
9019,1682.0
9039,1687.0
9059,1731.0
9079,1735.0
9098,1776.0
9119,1764.0
9139,1762.0
9159,1754.0
9178,1731.0
9198,1691.0
9218,1719.0
9239,1725.0
9259,1721.0
9279,1763.0
9299,1757.0
9319,1767.0
9339,1837.0
9359,1919.0
9378,1876.0
9398,1842.0
9418,1739.0
9439,1737.0
9459,1633.0
9479,2235.0
9499,3266.0
9518,1122.0
9538,1874.0
9559,1919.0
9579,1967.0
9598,2011.0
9619,2070.0
9639,2167.0
9658,2263.0
9678,2320.0
9699,2379.0
9718,2255.0
9739,2063.0
9759,1824.0
9778,1658.0
9798,1623.0
9819,1675.0
9839,1673.0
9858,1679.0
9878,1740.0
9899,1741.0
9918,1716.0
9939,1695.0
9959,1702.0
9979,1690.0
9998,1715.0
10018,1699.0
17,7506.451612903226
37,7500.0
57,7167.74193548387
78,6390.322580645162
97,5658.064516129032
117,5338.709677419354
138,5100.0
157,5358.064516129031
177,5448.387096774193
197,5580.645161290322
217,5651.612903225806
237,5609.677419354838
257,5467.741935483871
277,5425.806451612903
298,5783.870967741935
317,5938.709677419354
337,5983.870967741935
358,5751.612903225806
377,5248.387096774193
397,5283.870967741935
417,4951.612903225806
437,6667.74193548387
457,9493.548387096776
477,3880.645161290323
498,5641.935483870968
517,6074.193548387096
537,6200.0
558,6325.806451612903
577,6596.774193548387
597,6925.806451612903
617,7174.193548387096
637,7258.064516129031
657,7435.483870967742
677,6970.967741935483
697,6193.548387096774
717,5629.032258064516
737,5287.096774193547
757,5400.0
777,5419.354838709677
797,5509.677419354839
818,5658.064516129032
837,5761.290322580645
857,5467.741935483871
877,5441.935483870968
897,5812.903225806451
917,6029.032258064515
937,6238.709677419354
957,5880.645161290322
977,5532.258064516129
997,5022.58064516129
1017,5351.612903225806
1038,5629.032258064516
1058,12683.870967741936
1077,4474.193548387097
1097,4951.612903225806
1117,6045.1612903225805
1137,6054.83870967742
1157,6267.741935483871
1177,6506.451612903225
1197,6912.903225806451
1217,7116.129032258064
1237,7470.967741935485
1258,7467.741935483871
1277,7332.258064516128
1297,6677.419354838709
1318,5916.129032258064
1337,5558.064516129032
1357,5270.967741935484
1384,5493.548387096774
1397,5564.516129032258
1417,5693.548387096774
1437,5729.032258064516
1458,5687.096774193548
1477,5709.677419354838
1499,5661.290322580645
1517,5674.193548387097
1538,6080.645161290322
1558,6135.4838709677415
1578,6087.096774193548
1597,5841.935483870968
1617,5522.58064516129
1637,5470.967741935484
1657,5345.1612903225805
1678,8606.451612903225
1697,7719.354838709678
1717,4029.032258064517
1737,6061.290322580645
1757,6190.322580645161
1777,6500.0
1797,6577.419354838709
1818,6567.74193548387
1837,7170.967741935483
1857,7367.741935483869
1877,7503.225806451614
1897,7487.096774193548
1917,6983.870967741935
1937,6370.967741935484
1957,5664.516129032258
1977,5316.129032258064
1997,5474.1935483870975
2017,5619.354838709677
2037,5667.741935483871
2057,5848.387096774193
2078,5751.612903225806
2097,5854.838709677419
2117,5603.225806451614
2137,5899.999999999999
2158,6054.83870967742
2178,6212.903225806452
2197,5929.032258064516
2217,5677.419354838709
2237,5419.354838709677
2257,5490.322580645161
2277,5293.548387096774
2297,9654.83870967742
2317,6451.612903225806
2338,4387.096774193548
2357,6141.935483870968
2377,6261.290322580646
2398,6325.806451612903
2417,6570.967741935483
2437,6712.903225806451
2458,6880.645161290322
2478,7358.06451612903
2497,7751.612903225807
2517,7174.193548387096
2537,6693.548387096774
2557,6009.677419354838
2577,5535.4838709677415
2598,5358.064516129031
2618,5154.838709677419
2637,5235.4838709677415
2658,5490.322580645161
2677,5564.516129032258
2697,5561.290322580646
2718,5616.129032258064
2737,5522.58064516129
2757,5648.387096774193
2777,5912.903225806451
2797,6245.1612903225805
2818,5796.774193548387
2837,5474.1935483870975
2858,5161.290322580645
2877,5261.290322580645
2897,5212.903225806451
2917,10116.129032258064
2937,5690.322580645161
2957,4138.709677419355
2978,5777.419354838709
2997,6100.0
3017,6351.612903225807
3038,6141.935483870968
3058,6654.838709677419
3077,7070.967741935483
3097,7225.8064516129025
3117,7287.096774193547
3137,7070.967741935483
3157,6803.225806451613
3177,5864.516129032258
3197,5548.387096774193
3217,5322.58064516129
3237,5448.387096774193
3257,5390.322580645162
3277,5403.225806451613
3297,5658.064516129032
3317,5709.677419354838
3338,5729.032258064516
3357,5816.129032258064
3378,6074.193548387096
3397,5983.870967741935
3417,5606.451612903225
3437,5461.290322580645
3458,5419.354838709677
3477,5235.4838709677415
3497,5941.935483870967
3518,11306.451612903224
3537,4741.935483870968
3557,5419.354838709677
3578,5987.096774193547
3597,5993.548387096774
3617,6309.677419354839
3637,6832.258064516129
3657,6864.516129032258
3677,7129.032258064515
3698,7374.193548387096
3718,7425.806451612903
3737,7012.903225806451
3757,6564.516129032258
3777,5938.709677419354
3797,5522.58064516129
3817,5490.322580645161
3837,5487.096774193548
3857,5680.645161290323
3878,5803.225806451613
3897,5783.870967741935
3917,5841.935483870968
3938,5735.4838709677415
3957,6241.935483870968
3977,6158.064516129031
3997,6074.193548387096
4017,5764.5161290322585
4037,5625.806451612903
4057,5496.774193548387
4077,5258.064516129032
4097,7070.967741935483
4117,9906.451612903224
4137,3838.709677419355
4157,5703.225806451613
4177,6125.806451612903
4197,6364.516129032258
4217,6690.32258064516
4237,6454.83870967742
4257,7138.709677419354
4277,7309.677419354838
4297,7587.096774193548
4318,7483.870967741936
4337,7041.935483870967
4358,6341.935483870968
4377,5758.064516129032
4398,5248.387096774193
4417,5490.322580645161
4437,5429.032258064516
4457,5596.774193548387
4477,5990.322580645161
4497,5577.419354838709
4517,5577.419354838709
4537,5867.74193548387
4558,6067.74193548387
4577,6261.290322580646
4597,5916.129032258064
4617,5506.451612903226
4637,5383.870967741936
4657,5358.064516129031
4678,5332.258064516129
4697,11370.967741935485
4717,5051.612903225806
4737,4816.129032258064
4758,5987.096774193547
4777,6138.709677419354
4797,6277.419354838709
4817,6370.967741935484
4837,6812.903225806451
4857,6983.870967741935
4878,7432.25806451613
4897,7580.645161290323
4917,7232.258064516128
4937,6522.58064516129
4957,5832.258064516129
4978,5529.032258064516
4997,5316.129032258064
5018,5222.58064516129
5037,5574.193548387097
5057,5619.354838709677
5078,5516.129032258064
5097,5570.967741935484
5117,6122.58064516129
5137,6116.129032258064
5158,6177.419354838709
5178,5683.870967741936
5197,5422.580645161291
5218,5396.774193548386
5238,5100.0
5257,5580.645161290322
5277,12861.290322580646
5297,4077.419354838709
5317,5296.774193548386
5337,5770.967741935484
5357,6138.709677419354
5377,6132.258064516129
5397,6454.83870967742
5417,6703.225806451613
5437,7074.193548387096
5457,7219.354838709677
5478,7277.419354838708
5497,6967.74193548387
5517,6429.032258064516
5538,5725.806451612903
5557,5316.129032258064
5578,4951.612903225806
5597,5300.0
5618,5312.903225806451
5638,5645.1612903225805
5658,5448.387096774193
5678,5558.064516129032
5697,5483.870967741935
5717,6048.387096774193
5737,6061.290322580645
5757,6003.225806451613
5778,5754.83870967742
5797,5367.741935483871
5818,5219.354838709677
5837,5161.290322580645
5857,6812.903225806451
5877,10022.58064516129
5897,3532.2580645161283
5917,5796.774193548387
5937,6096.774193548386
5957,6393.548387096775
5977,6335.4838709677415
5997,6503.225806451613
6017,6919.354838709677
6037,7193.548387096773
6058,7235.483870967741
6077,7229.032258064515
6097,6858.064516129031
6117,6235.4838709677415
6138,5435.483870967742
6158,5180.645161290322
6178,5090.322580645161
6197,5222.58064516129
6217,5393.548387096775
6237,5461.290322580645
6257,5477.41935483871
6278,5512.903225806452
6298,5306.451612903225
6318,5377.41935483871
6338,5477.41935483871
6357,5519.354838709678
6377,5777.419354838709
6397,6161.290322580644
6417,5683.870967741936
6438,5296.774193548386
6458,5116.129032258064
6478,5219.354838709677
6502,5054.83870967742
6517,10409.677419354835
6538,5161.290322580645
6558,4380.645161290322
6578,5912.903225806451
6598,5987.096774193547
6617,6377.419354838709
6637,6451.612903225806
6657,6454.83870967742
6677,6912.903225806451
6697,7216.129032258063
6717,7238.709677419353
6737,7058.064516129032
6758,6551.612903225807
6777,5938.709677419354
6797,5296.774193548386
6817,5125.806451612903
6837,5332.258064516129
6857,5519.354838709678
6878,5554.83870967742
6897,5580.645161290322
6917,5667.741935483871
6938,5525.806451612903
6957,5551.612903225807
6978,5461.290322580645
6997,5854.838709677419
7017,6019.354838709677
7037,6145.1612903225805
7057,5832.258064516129
7078,5583.870967741936
7097,5287.096774193547
7117,5403.225806451613
7138,5212.903225806451
7157,10135.48387096774
7178,5783.870967741935
7197,4390.322580645161
7217,6251.612903225807
7237,6254.83870967742
7258,6419.354838709677
7278,6738.709677419354
7297,6854.838709677419
7317,7319.354838709676
7337,7367.741935483869
7357,7622.580645161291
7377,7393.548387096774
7397,6874.193548387096
7417,6164.516129032258
7437,5700.0
7457,5409.677419354839
7478,5451.612903225806
7497,5625.806451612903
7518,5774.193548387096
7537,5719.354838709677
7558,5890.322580645161
7577,5751.612903225806
7597,5593.548387096775
7618,5561.290322580646
7638,5677.419354838709
7657,5690.322580645161
7678,5561.290322580646
7697,5935.4838709677415
7717,6348.387096774194
7764,6125.806451612903
7764,5780.645161290322
7777,5577.419354838709
7797,5470.967741935484
7817,5403.225806451613
7837,6087.096774193548
7857,12387.096774193547
7878,3906.4516129032254
7897,5454.83870967742
7917,6329.032258064516
7937,6300.0
7957,6603.225806451613
7977,6761.290322580645
7997,7119.354838709676
8017,7338.709677419354
8037,7454.8387096774195
8057,7796.774193548387
8077,7332.258064516128
8097,6770.967741935484
8117,5835.4838709677415
8137,5483.870967741935
8158,5332.258064516129
8177,5387.096774193548
8197,5574.193548387097
8217,5541.935483870968
8238,5619.354838709677
8257,5638.709677419355
8278,5432.25806451613
8298,5590.322580645161
8317,5325.806451612903
8338,5474.1935483870975
8358,5480.645161290322
8378,5670.967741935484
8397,5400.0
8417,5896.774193548386
8437,6112.903225806451
8458,6138.709677419354
8478,5835.4838709677415
8497,5603.225806451614
8517,5467.741935483871
8537,5419.354838709677
8557,5487.096774193548
8578,11051.612903225803
8597,5087.096774193548
8617,4903.225806451613
8637,6164.516129032258
8657,6122.58064516129
8678,6629.032258064516
8697,6658.064516129031
8717,6880.645161290322
8737,7245.16129032258
8757,7641.935483870968
8778,7538.709677419355
8797,7474.1935483870975
8817,6735.4838709677415
8837,6009.677419354838
8857,5635.483870967742
8878,5212.903225806451
8897,5280.645161290322
8917,5377.41935483871
8938,5603.225806451614
8958,5712.903225806452
8977,5793.548387096774
8997,5522.58064516129
9017,5670.967741935484
9037,5522.58064516129
9058,5696.774193548386
9078,5438.709677419354
9097,5635.483870967742
9117,5729.032258064516
9137,5687.096774193548
9157,5945.16129032258
9178,6229.032258064516
9215,6264.5161290322585
9222,5990.322580645161
9237,5638.709677419355
9257,5522.58064516129
9278,5425.806451612903
9297,6003.225806451613
9317,11687.096774193547
9337,4135.4838709677415
9358,5561.290322580646
9377,6283.870967741936
9397,6393.548387096775
9417,6335.4838709677415
9437,6706.451612903225
9457,7154.838709677419
9477,7274.193548387096
9497,7448.387096774193
9517,7603.225806451614
9537,7429.032258064517
9557,6925.806451612903
9578,5983.870967741935
9598,5683.870967741936
9618,5509.677419354839
9638,5567.74193548387
9657,5641.935483870968
9677,5861.290322580645
9697,5764.5161290322585
9717,5751.612903225806
9737,5800.0
9757,5645.1612903225805
9777,5635.483870967742
9797,5745.1612903225805
9818,5700.0
9837,6061.290322580645
9858,6303.225806451613
9878,6112.903225806451
9898,5996.774193548386
9918,5751.612903225806
9937,5629.032258064516
9958,5358.064516129031
9977,6019.354838709677
9997,11722.58064516129
10017,4545.1612903225805
16,1761.0
36,1664.0
57,1634.0
76,1650.0
97,1697.0
116,1711.0
137,1753.0
156,1757.0
176,1732.0
196,1718.0
216,1706.0
236,1680.0
256,1716.0
277,1770.0
297,1866.0
316,1840.0
336,1759.0
356,1705.0
376,1690.0
397,1569.0
417,1914.0
436,3198.0
456,1394.0
476,1616.0
496,1867.0
516,1872.0
536,1955.0
556,2024.0
583,2122.0
596,2224.0
616,2260.0
637,2276.0
656,2174.0
676,1954.0
696,1734.0
716,1645.0
736,1619.0
756,1627.0
777,1692.0
797,1719.0
816,1754.0
836,1734.0
857,1765.0
876,1719.0
896,1772.0
916,1734.0
936,1727.0
956,1724.0
976,1823.0
996,1931.0
1016,1927.0
1036,1840.0
1057,1712.0
1077,1763.0
1097,1680.0
1116,1687.0
1136,3701.0
1156,1515.0
1176,1604.0
1196,1878.0
1216,1904.0
1236,1982.0
1256,2033.0
1277,2137.0
1296,2227.0
1317,2345.0
1337,2362.0
1357,2247.0
1376,2138.0
1397,1853.0
1416,1705.0
1436,1600.0
1456,1637.0
1476,1598.0
1496,1670.0
1516,1738.0
1536,1771.0
1556,1737.0
1576,1744.0
1596,1730.0
1616,1713.0
1636,1682.0
1656,1719.0
1676,1733.0
1697,1855.0
1716,1907.0
1737,1921.0
1757,1850.0
1776,1716.0
1796,1681.0
1816,1693.0
1836,1805.0
1856,3952.0
1876,1280.0
1896,1743.0
1916,1907.0
1936,1947.0
1956,1986.0
1977,2065.0
1997,2183.0
2017,2241.0
2036,2299.0
2056,2389.0
2076,2295.0
2096,2084.0
2116,1840.0
2136,1675.0
2156,1626.0
2176,1632.0
2196,1679.0
2216,1713.0
2237,1728.0
2257,1746.0
2276,1734.0
2296,1732.0
2316,1716.0
2336,1707.0
2356,1687.0
2376,1761.0
2396,1841.0
2417,1893.0
2437,1794.0
2456,1746.0
2476,1696.0
2496,1634.0
2516,1567.0
2537,2709.0
2556,2186.0
2576,1271.0
2597,1835.0
2617,1877.0
2636,1878.0
2656,2034.0
2676,2064.0
2696,2112.0
2716,2250.0
2736,2320.0
2756,2289.0
2777,2123.0
2796,1922.0
2817,1729.0
2836,1667.0
2857,1639.0
2877,1658.0
2896,1701.0
2916,1731.0
2936,1761.0
2956,1760.0
2977,1718.0
2996,1731.0
3016,1731.0
3037,1853.0
3056,1983.0
3076,1899.0
3097,1764.0
3116,1709.0
3136,1747.0
3156,1568.0
3177,2240.0
3196,2846.0
3217,1269.0
3236,1817.0
3257,1931.0
3277,1937.0
3296,2005.0
3316,2083.0
3336,2145.0
3356,2295.0
3376,2325.0
3396,2331.0
3416,2203.0
3436,1968.0
3456,1753.0
3476,1670.0
3496,1659.0
3516,1702.0
3536,1731.0
3556,1730.0
3576,1739.0
3596,1756.0
3616,1747.0
3636,1770.0
3656,1749.0
3676,1758.0
3696,1875.0
3716,1954.0
3736,1872.0
3756,1781.0
3776,1713.0
3796,1712.0
3816,1637.0
3836,2959.0
3856,2139.0
3876,1383.0
3898,1909.0
3916,1961.0
3936,1969.0
3957,2022.0
3977,2114.0
3997,2229.0
4017,2342.0
4036,2384.0
4056,2322.0
4076,2175.0
4096,1889.0
4116,1785.0
4136,1646.0
4156,1671.0
4177,1682.0
4196,1739.0
4216,1755.0
4236,1793.0
4256,1804.0
4277,1754.0
4297,1734.0
4316,1856.0
4336,1932.0
4356,1879.0
4377,1852.0
4396,1745.0
4416,1745.0
4436,1584.0
4456,2161.0
4477,2991.0
4496,1296.0
4516,1827.0
4536,1904.0
4556,1936.0
4577,1984.0
4596,2110.0
4616,2207.0
4636,2256.0
4656,2379.0
4676,2350.0
4696,2256.0
4716,1971.0
4737,1786.0
4757,1639.0
4777,1671.0
4796,1697.0
4817,1712.0
4836,1725.0
4856,1763.0
4876,1765.0
4896,1762.0
4916,1717.0
4936,1735.0
4956,1840.0
4977,1947.0
4996,1851.0
5016,1729.0
5037,1743.0
5056,1695.0
5076,1607.0
5096,2521.0
5116,2463.0
5136,1266.0
5156,1889.0
5177,1872.0
5197,1929.0
5217,1987.0
5237,2070.0
5257,2180.0
5277,2259.0
5297,2299.0
5316,2273.0
5336,2149.0
5356,1909.0
5376,1728.0
5396,1645.0
5416,1623.0
5436,1667.0
5456,1680.0
5477,1747.0
5496,1753.0
5516,1735.0
5536,1712.0
5556,1730.0
5576,1813.0
5596,1891.0
5616,1840.0
5636,1744.0
5656,1645.0
5677,1701.0
5696,1532.0
5716,2343.0
5736,2554.0
5756,1239.0
5776,1757.0
5796,1838.0
5816,1883.0
5836,1940.0
5856,2036.0
5877,2102.0
5896,2218.0
5916,2251.0
5936,2272.0
5956,2112.0
5976,1885.0
5996,1696.0
6016,1616.0
6036,1575.0
6057,1659.0
6076,1691.0
6097,1743.0
6116,1744.0
6136,1754.0
6156,1735.0
6176,1762.0
6196,1840.0
6216,1911.0
6236,1794.0
6256,1723.0
6277,1648.0
6297,1655.0
6316,1599.0
6337,2980.0
6356,1947.0
6376,1344.0
6396,1873.0
6416,1895.0
6436,1965.0
6456,1993.0
6476,2119.0
6496,2210.0
6516,2290.0
6536,2352.0
6556,2291.0
6576,2096.0
6596,1834.0
6616,1686.0
6636,1637.0
6656,1637.0
6676,1653.0
6696,1772.0
6716,1725.0
6736,1728.0
6757,1757.0
6776,1757.0
6796,1738.0
6816,1739.0
6836,1776.0
6856,1823.0
6877,1953.0
6896,1885.0
6917,1804.0
6936,1659.0
6957,1703.0
6977,1637.0
6997,1952.0
7016,3600.0
7036,1242.0
7056,1782.0
7076,1906.0
7096,1934.0
7116,2017.0
7137,2043.0
7156,2165.0
7176,2245.0
7197,2323.0
7216,2383.0
7236,2219.0
7256,1983.0
7276,1750.0
7296,1681.0
7316,1633.0
7336,1670.0
7356,1703.0
7376,1711.0
7396,1730.0
7416,1767.0
7436,1761.0
7456,1742.0
7476,1717.0
7496,1711.0
7516,1737.0
7536,1744.0
7556,1839.0
7577,1917.0
7596,1846.0
7616,1797.0
7636,1718.0
7656,1710.0
7676,1619.0
7696,1913.0
7716,3495.0
7736,1264.0
7757,1761.0
7776,1883.0
7797,1930.0
7816,1996.0
7836,2035.0
7856,2128.0
7876,2278.0
7896,2330.0
7916,2340.0
7936,2279.0
7956,2013.0
7976,1787.0
7996,1629.0
8017,1634.0
8036,1596.0
8057,1664.0
8076,1687.0
8096,1730.0
8116,1761.0
8136,1712.0
8156,1693.0
8176,1704.0
8196,1738.0
8216,1698.0
8237,1722.0
8257,1751.0
8276,1887.0
8296,1861.0
8316,1791.0
8336,1730.0
8356,1703.0
8376,1739.0
8396,1626.0
8416,2878.0
8437,2128.0
8457,1360.0
8476,1875.0
8496,1942.0
8516,1989.0
8536,2059.0
8556,2138.0
8576,2224.0
8596,2301.0
8617,2384.0
8636,2337.0
8656,2167.0
8676,1903.0
8696,1765.0
8716,1648.0
8736,1633.0
8757,1679.0
8776,1685.0
8796,1733.0
8816,1790.0
8836,1806.0
8856,1746.0
8876,1730.0
8896,1766.0
8916,1733.0
8936,1755.0
8957,1845.0
8977,1920.0
8996,1872.0
9016,1807.0
9037,1718.0
9056,1714.0
9076,1571.0
9096,2167.0
9116,2999.0
9136,1279.0
9156,1794.0
9176,1906.0
9197,1923.0
9216,2003.0
9237,2096.0
9257,2176.0
9276,2287.0
9297,2376.0
9316,2339.0
9336,2222.0
9356,1965.0
9376,1746.0
9396,1657.0
9416,1661.0
9436,1658.0
9456,1667.0
9476,1715.0
9496,1754.0
9516,1774.0
9536,1739.0
9556,1724.0
9576,1742.0
9596,1725.0
9616,1727.0
9636,1758.0
9656,1802.0
9676,1730.0
9696,1842.0
9716,1926.0
9737,1893.0
9756,1840.0
9776,1713.0
9797,1731.0
9816,1680.0
9836,1798.0
9856,4038.0
9876,1283.0
9896,1727.0
9916,1895.0
9936,1965.0
9956,1959.0
9976,2045.0
9996,2160.0
10016,2240.0
16,2394.0
36,2453.0
56,2389.0
76,2166.0
96,1843.0
116,1663.0
137,1669.0
156,1613.0
176,1709.0
196,1670.0
216,1783.0
236,1778.0
256,1745.0
276,1755.0
296,1774.0
316,1766.0
336,1742.0
356,1869.0
376,1991.0
396,1907.0
416,1843.0
436,1776.0
456,1698.0
476,1625.0
496,1861.0
516,3824.0
536,1345.0
556,1703.0
576,1936.0
596,2007.0
616,1995.0
636,2046.0
656,2192.0
676,2320.0
696,2347.0
716,2487.0
736,2327.0
756,2062.0
776,1904.0
796,1647.0
816,1582.0
836,1666.0
856,1675.0
876,1744.0
896,1792.0
916,1847.0
936,1727.0
956,1762.0
976,1585.0
996,1748.0
1016,1790.0
1036,1775.0
1056,1837.0
1076,2032.0
1096,1856.0
1116,1770.0
1136,1767.0
1156,1675.0
1176,1742.0
1197,3493.0
1216,1663.0
1236,1510.0
1256,1897.0
1276,1900.0
1296,1955.0
1316,2034.0
1336,2077.0
1356,2257.0
1376,2352.0
1396,2407.0
1416,2484.0
1436,2225.0
1456,1881.0
1476,1619.0
1497,1671.0
1517,1619.0
1536,1610.0
1556,1712.0
1577,1711.0
1596,1751.0
1616,1817.0
1636,1727.0
1656,1734.0
1676,1759.0
1696,1887.0
1716,1862.0
1736,1836.0
1756,1821.0
1777,1747.0
1796,1601.0
1816,1585.0
1836,2555.0
1856,2317.0
1876,1239.0
1896,1871.0
1916,2033.0
1936,1885.0
1956,1895.0
1976,2163.0
1996,2167.0
2016,2315.0
2036,2368.0
2056,2402.0
2076,2194.0
2096,1922.0
2116,1694.0
2136,1627.0
2156,1611.0
2176,1702.0
2196,1730.0
2216,1744.0
2236,1715.0
2256,1757.0
2276,1775.0
2296,1681.0
2317,1729.0
2336,1753.0
2356,1758.0
2376,1810.0
2396,1873.0
2416,1965.0
2436,1799.0
2456,1771.0
2476,1762.0
2496,1686.0
2516,1697.0
2536,2998.0
2556,2163.0
2576,1328.0
2596,1904.0
2616,1862.0
2647,1939.0
2656,2014.0
2676,1981.0
2696,2177.0
2716,2350.0
2736,2451.0
2756,2403.0
2776,2218.0
2796,1918.0
2816,1697.0
2836,1642.0
2856,1577.0
2877,1611.0
2896,1669.0
2917,1750.0
2936,1681.0
2956,1692.0
2976,1802.0
2997,1717.0
3017,1692.0
3036,1707.0
3056,1771.0
3076,1793.0
3096,1826.0
3116,1839.0
3137,1845.0
3156,1590.0
3177,1642.0
3197,1826.0
3217,1615.0
3236,3458.0
3256,1629.0
3276,1488.0
3296,2000.0
3316,1817.0
3336,2047.0
3356,1846.0
3376,1979.0
3396,2319.0
3416,2309.0
3436,2342.0
3456,2359.0
3476,2131.0
3496,1857.0
3516,1808.0
3536,1569.0
3556,1586.0
3576,1573.0
3596,1619.0
3616,1783.0
3637,1647.0
3656,1707.0
3676,1671.0
3696,1586.0
3716,1648.0
3736,1789.0
3756,1712.0
3776,1843.0
3796,1904.0
3816,1841.0
3836,1798.0
3856,1706.0
3876,1746.0
3896,1728.0
3916,2427.0
3936,2672.0
3956,1323.0
3976,1773.0
3996,1997.0
4016,1940.0
4036,2067.0
4056,2174.0
4076,2316.0
4096,2337.0
4117,2400.0
4137,2481.0
4157,2258.0
4176,2148.0
4197,1711.0
4217,1718.0
4236,1654.0
4256,1623.0
4276,1766.0
4297,1761.0
4317,1784.0
4336,1791.0
4356,1808.0
4376,1807.0
4396,1761.0
4416,1775.0
4436,1854.0
4457,1971.0
4477,1894.0
4496,1774.0
4516,1693.0
4536,1743.0
4556,1666.0
4576,2297.0
4596,2589.0
4616,1328.0
4637,1776.0
4657,1875.0
4676,1949.0
4696,1951.0
4716,2127.0
4736,2160.0
4757,2352.0
4776,2416.0
4796,2453.0
4816,2269.0
4836,1933.0
4856,1680.0
4876,1615.0
4897,1600.0
4916,1632.0
4937,1650.0
4956,1590.0
4977,1727.0
4997,1778.0
5017,1763.0
5036,1616.0
5057,1725.0
5077,1662.0
5097,1736.0
5117,1715.0
5136,1842.0
5156,1898.0
5176,1850.0
5196,1791.0
5216,1777.0
5236,1635.0
5256,1632.0
5277,2343.0
5296,2766.0
5316,1232.0
5336,1836.0
5357,1926.0
5377,1888.0
5397,2000.0
5417,2086.0
5436,2197.0
5456,2286.0
5476,2381.0
5496,2439.0
5516,2315.0
5536,1949.0
5556,1750.0
5576,1613.0
5596,1605.0
5616,1620.0
5636,1632.0
5656,1625.0
5676,1683.0
5696,1702.0
5716,1690.0
5736,1719.0
5756,1762.0
5776,1654.0
5796,1661.0
5816,1657.0
5836,1847.0
5856,1936.0
5877,1779.0
5896,1803.0
5916,1631.0
5936,1674.0
5956,1617.0
5976,2307.0
5996,2672.0
6016,1220.0
6036,1779.0
6056,1910.0
6076,1989.0
6096,1877.0
6116,2093.0
6136,2256.0
6156,2256.0
6176,2474.0
6196,2313.0
6216,2286.0
6237,2112.0
6256,1830.0
6276,1571.0
6296,1618.0
6316,1645.0
6336,1698.0
6357,1665.0
6376,1711.0
6396,1789.0
6416,1811.0
6436,1693.0
6456,1733.0
6476,1810.0
6496,1782.0
6517,1882.0
6536,1990.0
6556,1847.0
6576,1861.0
6596,1724.0
6616,1735.0
6636,1821.0
6656,3370.0
6676,1808.0
6696,1499.0
6716,1943.0
6736,2065.0
6756,2000.0
6776,2109.0
6796,2158.0
6816,2317.0
6836,2448.0
6856,2479.0
6877,2401.0
6896,2207.0
6917,1974.0
6937,1745.0
6956,1725.0
6977,1675.0
6996,1676.0
7017,1775.0
7037,1735.0
7056,1808.0
7076,1838.0
7096,1781.0
7116,1713.0
7136,1684.0
7156,1766.0
7176,1943.0
7196,1757.0
7216,1741.0
7236,1702.0
7256,1712.0
7276,1525.0
7296,2464.0
7317,2492.0
7336,1246.0
7356,1819.0
7377,1874.0
7397,1967.0
7416,2034.0
7436,2081.0
7456,2163.0
7476,2325.0
7496,2418.0
7516,2432.0
7536,2281.0
7556,1910.0
7577,1634.0
7596,1625.0
7616,1627.0
7636,1659.0
7656,1637.0
7676,1680.0
7696,1795.0
7716,1610.0
7736,1747.0
7756,1746.0
7776,1676.0
7796,1728.0
7816,1871.0
7836,1773.0
7856,1901.0
7876,1829.0
7896,1700.0
7916,1635.0
7936,1690.0
7956,1616.0
7976,3475.0
7996,1585.0
8016,1518.0
8036,1843.0
8056,1949.0
8076,1911.0
8096,1993.0
8117,2043.0
8137,2214.0
8157,2341.0
8176,2421.0
8197,2276.0
8217,2155.0
8236,1791.0
8256,1673.0
8276,1503.0
8296,1601.0
8316,1570.0
8336,1625.0
8356,1746.0
8376,1697.0
8396,1759.0
8416,1635.0
8437,1670.0
8456,1644.0
8477,1812.0
8497,1797.0
8517,1866.0
8537,1856.0
8557,1774.0
8576,1655.0
8596,1608.0
8616,1677.0
8636,3216.0
8656,1764.0
8676,1411.0
8696,1980.0
8716,1901.0
8736,2001.0
8757,2044.0
8776,2171.0
8797,2259.0
8817,2224.0
8836,2526.0
8857,2384.0
8876,2141.0
8897,1895.0
8916,1703.0
8936,1658.0
8956,1759.0
8976,1685.0
8996,1696.0
9016,1739.0
9036,1774.0
9056,1769.0
9076,1799.0
9096,1709.0
9116,1776.0
9136,1808.0
9156,1819.0
9176,1827.0
9196,1669.0
9216,1631.0
9236,1715.0
9256,1714.0
9276,3333.0
9296,1616.0
9316,1481.0
9336,1878.0
9356,1971.0
9376,1993.0
9396,2015.0
9416,2086.0
9436,2252.0
9456,2329.0
9476,2372.0
9497,2305.0
9516,2022.0
9536,1937.0
9557,1609.0
9577,1646.0
9596,1613.0
9616,1535.0
9636,1765.0
9656,1623.0
9676,1680.0
9696,1719.0
9716,1677.0
9736,1861.0
9756,1920.0
9776,1861.0
9796,1718.0
9816,1744.0
9836,1639.0
9856,1616.0
9876,1755.0
9897,3516.0
9916,1382.0
9936,1645.0
9956,1902.0
9976,1959.0
9996,2074.0
10016,1899.0
18,1864.0
38,1823.0
58,1777.0
78,1783.0
98,1711.0
118,3258.0
138,2039.0
158,1390.0
178,1953.0
198,1959.0
218,2047.0
238,2065.0
259,2155.0
278,2274.0
298,2379.0
318,2445.0
338,2402.0
358,2276.0
378,1939.0
398,1729.0
418,1618.0
438,1659.0
458,1653.0
478,1661.0
498,1712.0
518,1744.0
538,1737.0
558,1755.0
578,1712.0
598,1741.0
618,1758.0
638,1701.0
658,1755.0
678,1744.0
698,1745.0
718,1744.0
738,1764.0
758,1889.0
778,1949.0
798,1904.0
818,1846.0
838,1770.0
858,1744.0
878,1744.0
898,1962.0
918,3786.0
938,1310.0
958,1770.0
978,1906.0
998,1975.0
1018,2013.0
1038,2102.0
1058,2214.0
1078,2304.0
1098,2384.0
1118,2432.0
1138,2352.0
1159,2123.0
1178,1843.0
1198,1655.0
1218,1611.0
1238,1607.0
1258,1670.0
1279,1648.0
1299,1731.0
1318,1733.0
1338,1753.0
1358,1728.0
1378,1753.0
1398,1715.0
1418,1723.0
1439,1744.0
1459,1744.0
1478,1731.0
1498,1719.0
1519,1762.0
1539,1803.0
1559,1801.0
1578,1909.0
1598,1918.0
1619,1895.0
1639,1829.0
1659,1792.0
1678,1778.0
1698,1791.0
1718,3313.0
1738,1913.0
1759,1470.0
1778,1943.0
1799,2005.0
1819,2011.0
1839,2093.0
1859,2204.0
1878,2288.0
1898,2367.0
1918,2434.0
1939,2411.0
1958,2229.0
1979,1988.0
1999,1751.0
2019,1680.0
2039,1674.0
2058,1673.0
2078,1710.0
2098,1755.0
2118,1765.0
2138,1754.0
2158,1773.0
2178,1758.0
2198,1763.0
2218,1740.0
2238,1744.0
2259,1747.0
2278,1793.0
2298,1778.0
2318,1875.0
2339,1937.0
2358,1887.0
2378,1852.0
2399,1750.0
2418,1761.0
2438,1642.0
2459,2764.0
2479,2385.0
2498,1347.0
2518,1893.0
2538,1911.0
2558,2021.0
2578,2066.0
2598,2128.0
2619,2235.0
2638,2309.0
2658,2416.0
2679,2401.0
2698,2251.0
2719,2029.0
2746,1774.0
2758,1667.0
2778,1685.0
2798,1690.0
2818,1717.0
2838,1733.0
2858,1789.0
2878,1770.0
2898,1764.0
2919,1744.0
2938,1767.0
2959,1764.0
2978,1767.0
2999,1750.0
3018,1840.0
3038,1901.0
3059,1952.0
3078,1886.0
3098,1797.0
3118,1751.0
3138,1747.0
3158,1714.0
3178,3334.0
3198,1884.0
3218,1438.0
3238,1919.0
3259,1962.0
3278,1997.0
3298,2042.0
3318,2111.0
3339,2255.0
3358,2340.0
3378,2419.0
3398,2368.0
3419,2224.0
3438,1958.0
3458,1728.0
3478,1641.0
3498,1647.0
3518,1648.0
3538,1691.0
3558,1744.0
3578,1776.0
3598,1758.0
3618,1744.0
3638,1744.0
3658,1763.0
3678,1774.0
3698,1759.0
3718,1747.0
3738,1887.0
3758,1929.0
3778,1968.0
3798,1872.0
3818,1776.0
3838,1761.0
3858,1712.0
3878,1826.0
3899,3911.0
3919,1364.0
3938,1689.0
3958,1923.0
3978,1968.0
3998,1997.0
4018,2083.0
4038,2166.0
4059,2256.0
4078,2377.0
4098,2402.0
4118,2321.0
4138,2149.0
4158,1876.0
4178,1674.0
4198,1648.0
4219,1654.0
4239,1686.0
4259,1721.0
4279,1750.0
4298,1776.0
4318,1776.0
4339,1747.0
4359,1715.0
4378,1776.0
4398,1747.0
4419,1766.0
4439,1840.0
4458,1904.0
4479,1988.0
4499,1839.0
4519,1750.0
4538,1723.0
4559,1687.0
4579,1806.0
4599,3738.0
4618,1366.0
4638,1694.0
4658,1894.0
4678,1963.0
4698,1997.0
4719,2066.0
4738,2151.0
4759,2270.0
4779,2326.0
4799,2394.0
4818,2334.0
4838,2122.0
4858,1866.0
4878,1749.0
4899,1681.0
4918,1673.0
4938,1698.0
4958,1749.0
4978,1779.0
4998,1792.0
5018,1791.0
5038,1735.0
5058,1757.0
5078,1739.0
5098,1806.0
5118,1840.0
5138,1957.0
5158,1856.0
5179,1773.0
5199,1713.0
5218,1744.0
5238,1664.0
5258,3115.0
5278,1920.0
5298,1380.0
5318,1856.0
5338,1917.0
5359,1947.0
5379,2031.0
5398,2132.0
5419,2189.0
5439,2309.0
5459,2341.0
5479,2259.0
5499,2161.0
5519,1936.0
5539,1741.0
5559,1648.0
5579,1675.0
5599,1678.0
5619,1713.0
5638,1771.0
5658,1765.0
5678,1783.0
5698,1763.0
5718,1746.0
5748,1847.0
5758,1924.0
5778,1857.0
5798,1791.0
5818,1714.0
5838,1701.0
5858,1586.0
5878,2453.0
5898,2463.0
5919,1222.0
5939,1807.0
5958,1939.0
5978,1963.0
5998,2031.0
6019,2114.0
6039,2189.0
6059,2273.0
6079,2373.0
6098,2304.0
6118,2159.0
6139,1955.0
6158,1714.0
6179,1666.0
6198,1647.0
6218,1662.0
6239,1693.0
6259,1753.0
6279,1759.0
6299,1779.0
6318,1744.0
6339,1739.0
6359,1730.0
6380,1765.0
6398,1865.0
6418,1920.0
6438,1886.0
6458,1783.0
6478,1729.0
6498,1691.0
6518,1587.0
6538,2470.0
6558,2613.0
6578,1223.0
6598,1847.0
6618,1904.0
6638,1955.0
6659,2010.0
6679,2127.0
6698,2205.0
6718,2287.0
6738,2403.0
6758,2346.0
6779,2271.0
6800,1982.0
6819,1747.0
6839,1697.0
6859,1634.0
6879,1667.0
6899,1737.0
6919,1757.0
6939,1793.0
6959,1762.0
6978,1751.0
6998,1731.0
7018,1744.0
7039,1726.0
7059,1829.0
7079,1904.0
7098,1903.0
7119,1789.0
7139,1671.0
7159,1712.0
7178,1583.0
7199,1963.0
7219,3345.0
7239,1195.0
7259,1797.0
7279,1887.0
7299,1892.0
7319,2014.0
7338,2064.0
7359,2173.0
7379,2256.0
7399,2375.0
7418,2325.0
7438,2229.0
7458,2019.0
7479,1783.0
7498,1629.0
7518,1641.0
7539,1631.0
7558,1697.0
7579,1677.0
7598,1727.0
7618,1759.0
7639,1730.0
7659,1753.0
7678,1679.0
7698,1728.0
7719,1697.0
7739,1733.0
7759,1851.0
7779,1920.0
7799,1906.0
7819,1827.0
7839,1737.0
7859,1739.0
7879,1662.0
7899,1902.0
7919,3698.0
7939,1349.0
7959,1761.0
7979,1942.0
7999,1951.0
8018,2038.0
8038,2103.0
8058,2145.0
8079,2240.0
8099,2335.0
8118,2415.0
8139,2288.0
8159,2105.0
8178,1822.0
8198,1680.0
8218,1680.0
8238,1651.0
8258,1705.0
8278,1744.0
8298,1776.0
8318,1782.0
8338,1767.0
8359,1729.0
8378,1745.0
8399,1706.0
8419,1745.0
8439,1817.0
8459,1840.0
8479,1886.0
8499,1835.0
8519,1811.0
8539,1681.0
8559,1705.0
8579,1646.0
8599,3029.0
8619,1919.0
8638,1378.0
8658,1863.0
8678,1946.0
8698,2003.0
8718,2064.0
8738,2106.0
8758,2252.0
8778,2288.0
8798,2361.0
8818,2350.0
8838,2176.0
8858,1894.0
8878,1744.0
8898,1682.0
8918,1663.0
8938,1671.0
8958,1738.0
8978,1742.0
8998,1804.0
9018,1779.0
9038,1738.0
9058,1755.0
9078,1735.0
9098,1757.0
9118,1712.0
9138,1776.0
9158,1861.0
9178,1962.0
9198,1931.0
9218,1814.0
9238,1760.0
9258,1746.0
9278,1648.0
9298,1936.0
9318,3832.0
9338,1294.0
9359,1798.0
9378,1947.0
9398,1941.0
9418,2026.0
9438,2120.0
9458,2243.0
9478,2231.0
9498,2352.0
9518,2393.0
9538,2378.0
9559,2030.0
9578,1795.0
9598,1661.0
9618,1605.0
9638,1677.0
9659,1655.0
9679,1676.0
9699,1740.0
9718,1731.0
9739,1713.0
9759,1680.0
9778,1691.0
9798,1685.0
9819,1680.0
9838,1698.0
9859,1712.0
9878,1698.0
9898,1712.0
9918,1777.0
9938,1883.0
9959,1903.0
9979,1794.0
9999,1735.0
10018,1695.0
